Interval=	0,001 s
ExcelDateTime=	4,0916881794484150e+004	2012-01-08 21:09:47,043431
TimeFormat=	StartOfBlock
DateFormat=	
ChannelTitle=	Channel 3	Channel 4
Range=	5,000 mV	5,000 mV
0	-0,002	-0,073
0,001	-0,002	-0,084
0,002	-0,002	-0,089
0,003	-0,002	-0,094
0,004	-0,002	-0,097
0,005	-0,002	-0,093
0,006	-0,002	-0,104
0,007	-0,002	-0,119
0,008	-0,002	-0,071
0,009	-0,002	-0,025
0,01	-0,002	-0,029
0,011	-0,002	-0,035
0,012	-0,002	-0,043
0,013	-0,002	-0,045
0,014	-0,002	-0,031
0,015	-0,002	-0,016
0,016	-0,002	-0,018
0,017	-0,002	-0,034
0,018	-0,002	-0,050
0,019	-0,002	-0,075
0,02	-0,002	-0,079
0,021	-0,002	-0,065
0,022	-0,002	-0,063
0,023	-0,002	-0,072
0,024	-0,002	-0,075
0,025	-0,002	-0,074
0,026	-0,002	-0,071
0,027	-0,002	-0,057
0,028	-0,002	-0,044
0,029	-0,002	-0,038
0,03	-0,002	-0,019
0,031	-0,002	-0,005
0,032	-0,002	-0,051
0,033	-0,002	-0,085
0,034	-0,002	-0,057
0,035	-0,002	-0,037
0,036	-0,002	-0,054
0,037	-0,002	-0,058
0,038	-0,002	-0,068
0,039	-0,002	-0,081
0,04	-0,002	-0,058
0,041	-0,002	-0,034
0,042	-0,002	-0,020
0,043	-0,002	-0,025
0,044	-0,002	-0,040
0,045	-0,002	-0,047
0,046	-0,002	-0,061
0,047	-0,002	-0,065
0,048	-0,002	-0,063
0,049	-0,002	-0,058
0,05	-0,002	-0,042
0,051	-0,002	-0,031
0,052	-0,002	-0,041
0,053	-0,002	-0,054
0,054	-0,002	-0,051
0,055	-0,002	-0,055
0,056	-0,002	-0,065
0,057	-0,002	-0,063
0,058	-0,002	-0,050
0,059	-0,002	-0,045
0,06	-0,002	-0,051
0,061	-0,002	-0,050
0,062	-0,002	-0,057
0,063	-0,002	-0,055
0,064	-0,002	-0,041
0,065	-0,002	-0,036
0,066	-0,002	-0,033
0,067	-0,002	-0,026
0,068	-0,002	-0,035
0,069	-0,002	-0,040
0,07	-0,002	-0,028
0,071	-0,002	-0,031
0,072	-0,002	-0,024
0,073	-0,002	-0,013
0,074	-0,002	-0,019
0,075	-0,002	-0,025
0,076	-0,002	-0,032
0,077	-0,002	-0,052
0,078	-0,002	-0,060
0,079	-0,002	-0,045
0,08	-0,002	-0,044
0,081	-0,002	-0,036
0,082	-0,002	-0,026
0,083	-0,002	-0,033
0,084	-0,002	-0,043
0,085	-0,002	-0,041
0,086	-0,002	-0,027
0,087	-0,002	-0,022
0,088	-0,002	-0,017
0,089	-0,002	-0,009
0,09	-0,002	-0,000
0,091	-0,002	-0,002
0,092	-0,002	-0,020
0,093	-0,002	-0,015
0,094	-0,002	-0,014
0,095	-0,002	-0,023
0,096	-0,002	-0,018
0,097	-0,002	-0,022
0,098	-0,002	-0,030
0,099	-0,002	-0,040
0,1	-0,002	-0,039
0,101	-0,002	-0,036
0,102	-0,002	-0,036
0,103	-0,002	-0,029
0,104	-0,002	-0,021
0,105	-0,002	0,012
0,106	-0,002	0,030
0,107	-0,002	0,011
0,108	-0,002	0,011
0,109	-0,002	0,019
0,11	-0,002	0,034
0,111	-0,002	0,053
0,112	-0,002	0,038
0,113	-0,002	0,029
0,114	-0,002	0,026
0,115	-0,002	0,003
0,116	-0,002	-0,010
0,117	-0,002	-0,013
0,118	-0,002	-0,007
0,119	-0,002	-0,009
0,12	-0,002	-0,017
0,121	-0,002	-0,026
0,122	-0,002	-0,043
0,123	-0,002	-0,051
0,124	-0,002	-0,055
0,125	-0,002	-0,047
0,126	-0,002	-0,045
0,127	-0,002	-0,053
0,128	-0,002	-0,061
0,129	-0,002	-0,080
0,13	-0,002	-0,080
0,131	-0,002	-0,069
0,132	-0,002	-0,076
0,133	-0,002	-0,072
0,134	-0,002	-0,070
0,135	-0,002	-0,068
0,136	-0,002	-0,066
0,137	-0,002	-0,067
0,138	-0,002	-0,068
0,139	-0,002	-0,073
0,14	-0,002	-0,066
0,141	-0,002	-0,053
0,142	-0,002	-0,065
0,143	-0,002	-0,067
0,144	-0,002	-0,066
0,145	-0,002	-0,072
0,146	-0,002	-0,080
0,147	-0,002	-0,088
0,148	-0,002	-0,076
0,149	-0,002	-0,069
0,15	-0,002	-0,070
0,151	-0,002	-0,079
0,152	-0,002	-0,069
0,153	-0,002	-0,064
0,154	-0,002	-0,081
0,155	-0,002	-0,071
0,156	-0,002	-0,062
0,157	-0,002	-0,048
0,158	-0,002	-0,043
0,159	-0,002	-0,067
0,16	-0,002	-0,065
0,161	-0,002	-0,065
0,162	-0,002	-0,064
0,163	-0,002	-0,064
0,164	-0,002	-0,071
0,165	-0,002	-0,073
0,166	-0,002	-0,079
0,167	-0,002	-0,071
0,168	-0,002	-0,065
0,169	-0,002	-0,064
0,17	-0,002	-0,061
0,171	-0,002	-0,060
0,172	-0,002	-0,051
0,173	-0,002	-0,034
0,174	-0,002	-0,027
0,175	-0,002	-0,031
0,176	-0,003	-0,040
0,177	-0,003	-0,049
0,178	-0,003	-0,055
0,179	-0,002	-0,050
0,18	-0,001	-0,042
0,181	0,001	-0,055
0,182	0,001	-0,071
0,183	0,001	-0,074
0,184	-0,000	-0,065
0,185	-0,003	-0,039
0,186	-0,008	-0,029
0,187	-0,011	-0,028
0,188	-0,012	-0,026
0,189	-0,009	-0,022
0,19	0,000	0,000
0,191	0,016	0,017
0,192	0,038	0,037
0,193	0,066	0,060
0,194	0,098	0,085
0,195	0,133	0,122
0,196	0,168	0,170
0,197	0,203	0,211
0,198	0,237	0,240
0,199	0,268	0,278
0,2	0,297	0,318
0,201	0,322	0,327
0,202	0,345	0,332
0,203	0,363	0,357
0,204	0,376	0,368
0,205	0,385	0,383
0,206	0,388	0,388
0,207	0,387	0,379
0,208	0,381	0,378
0,209	0,370	0,369
0,21	0,355	0,362
0,211	0,337	0,349
0,212	0,316	0,315
0,213	0,293	0,298
0,214	0,268	0,287
0,215	0,243	0,245
0,216	0,217	0,198
0,217	0,192	0,170
0,218	0,167	0,150
0,219	0,143	0,135
0,22	0,120	0,126
0,221	0,099	0,113
0,222	0,079	0,095
0,223	0,061	0,066
0,224	0,044	0,051
0,225	0,029	0,053
0,226	0,014	0,036
0,227	0,002	-0,005
0,228	-0,010	-0,041
0,229	-0,020	-0,045
0,23	-0,029	-0,049
0,231	-0,037	-0,053
0,232	-0,044	-0,057
0,233	-0,050	-0,053
0,234	-0,055	-0,023
0,235	-0,058	-0,020
0,236	-0,061	-0,056
0,237	-0,062	-0,058
0,238	-0,063	-0,060
0,239	-0,063	-0,073
0,24	-0,062	-0,058
0,241	-0,060	-0,059
0,242	-0,058	-0,060
0,243	-0,056	-0,073
0,244	-0,054	-0,071
0,245	-0,052	-0,051
0,246	-0,051	-0,046
0,247	-0,050	-0,044
0,248	-0,050	-0,052
0,249	-0,051	-0,059
0,25	-0,052	-0,066
0,251	-0,055	-0,057
0,252	-0,058	-0,039
0,253	-0,061	-0,045
0,254	-0,065	-0,049
0,255	-0,069	-0,062
0,256	-0,073	-0,085
0,257	-0,076	-0,092
0,258	-0,080	-0,086
0,259	-0,082	-0,084
0,26	-0,084	-0,082
0,261	-0,085	-0,072
0,262	-0,085	-0,087
0,263	-0,084	-0,099
0,264	-0,082	-0,086
0,265	-0,080	-0,082
0,266	-0,077	-0,073
0,267	-0,075	-0,068
0,268	-0,072	-0,070
0,269	-0,069	-0,061
0,27	-0,067	-0,058
0,271	-0,065	-0,060
0,272	-0,064	-0,072
0,273	-0,064	-0,077
0,274	-0,065	-0,077
0,275	-0,066	-0,067
0,276	-0,068	-0,059
0,277	-0,071	-0,079
0,278	-0,073	-0,078
0,279	-0,076	-0,071
0,28	-0,078	-0,066
0,281	-0,080	-0,076
0,282	-0,081	-0,089
0,283	-0,081	-0,076
0,284	-0,081	-0,074
0,285	-0,079	-0,080
0,286	-0,076	-0,071
0,287	-0,073	-0,073
0,288	-0,069	-0,074
0,289	-0,064	-0,070
0,29	-0,060	-0,077
0,291	-0,055	-0,067
0,292	-0,051	-0,043
0,293	-0,047	-0,035
0,294	-0,044	-0,035
0,295	-0,042	-0,035
0,296	-0,041	-0,048
0,297	-0,040	-0,051
0,298	-0,041	-0,050
0,299	-0,043	-0,044
0,3	-0,045	-0,027
0,301	-0,047	-0,026
0,302	-0,050	-0,034
0,303	-0,053	-0,054
0,304	-0,055	-0,078
0,305	-0,057	-0,071
0,306	-0,059	-0,070
0,307	-0,059	-0,072
0,308	-0,059	-0,055
0,309	-0,058	-0,053
0,31	-0,056	-0,053
0,311	-0,054	-0,041
0,312	-0,051	-0,037
0,313	-0,047	-0,045
0,314	-0,043	-0,062
0,315	-0,039	-0,054
0,316	-0,036	-0,035
0,317	-0,032	-0,036
0,318	-0,029	-0,016
0,319	-0,026	-0,005
0,32	-0,024	-0,016
0,321	-0,022	-0,014
0,322	-0,020	-0,023
0,323	-0,019	-0,032
0,324	-0,019	-0,028
0,325	-0,018	-0,036
0,326	-0,018	-0,034
0,327	-0,018	-0,009
0,328	-0,017	-0,007
0,329	-0,017	-0,006
0,33	-0,017	-0,003
0,331	-0,016	-0,014
0,332	-0,015	-0,032
0,333	-0,015	-0,034
0,334	-0,014	-0,016
0,335	-0,013	-0,012
0,336	-0,012	-0,011
0,337	-0,011	0,002
0,338	-0,010	0,009
0,339	-0,009	0,014
0,34	-0,008	0,003
0,341	-0,008	-0,016
0,342	-0,007	-0,020
0,343	-0,006	-0,024
0,344	-0,006	-0,019
0,345	-0,005	-0,016
0,346	-0,004	-0,010
0,347	-0,003	-0,005
0,348	-0,001	-0,007
0,349	0,000	0,004
0,35	0,002	0,022
0,351	0,004	0,023
0,352	0,006	0,007
0,353	0,008	0,011
0,354	0,010	0,020
0,355	0,012	0,018
0,356	0,014	0,014
0,357	0,016	0,002
0,358	0,018	-0,002
0,359	0,019	0,012
0,36	0,020	0,023
0,361	0,021	0,026
0,362	0,022	0,026
0,363	0,023	0,021
0,364	0,023	0,024
0,365	0,024	0,028
0,366	0,025	0,023
0,367	0,026	0,025
0,368	0,027	0,032
0,369	0,029	0,038
0,37	0,031	0,036
0,371	0,034	0,033
0,372	0,037	0,025
0,373	0,042	0,023
0,374	0,046	0,045
0,375	0,052	0,050
0,376	0,057	0,049
0,377	0,064	0,079
0,378	0,070	0,095
0,379	0,077	0,086
0,38	0,084	0,096
0,381	0,090	0,082
0,382	0,097	0,069
0,383	0,103	0,095
0,384	0,109	0,113
0,385	0,113	0,117
0,386	0,118	0,116
0,387	0,121	0,121
0,388	0,124	0,131
0,389	0,126	0,127
0,39	0,128	0,125
0,391	0,129	0,127
0,392	0,129	0,114
0,393	0,130	0,120
0,394	0,131	0,136
0,395	0,131	0,151
0,396	0,132	0,150
0,397	0,134	0,143
0,398	0,136	0,143
0,399	0,138	0,125
0,4	0,142	0,124
0,401	0,146	0,142
0,402	0,151	0,160
0,403	0,156	0,165
0,404	0,162	0,152
0,405	0,168	0,154
0,406	0,175	0,165
0,407	0,181	0,171
0,408	0,187	0,187
0,409	0,192	0,192
0,41	0,196	0,210
0,411	0,200	0,231
0,412	0,203	0,211
0,413	0,205	0,200
0,414	0,206	0,206
0,415	0,207	0,204
0,416	0,207	0,207
0,417	0,206	0,211
0,418	0,205	0,196
0,419	0,204	0,189
0,42	0,203	0,197
0,421	0,203	0,178
0,422	0,202	0,194
0,423	0,203	0,223
0,424	0,204	0,227
0,425	0,206	0,235
0,426	0,209	0,217
0,427	0,211	0,200
0,428	0,215	0,201
0,429	0,218	0,206
0,43	0,221	0,210
0,431	0,224	0,202
0,432	0,227	0,214
0,433	0,228	0,248
0,434	0,228	0,265
0,435	0,228	0,250
0,436	0,226	0,236
0,437	0,223	0,218
0,438	0,219	0,196
0,439	0,213	0,195
0,44	0,207	0,200
0,441	0,199	0,199
0,442	0,191	0,188
0,443	0,183	0,186
0,444	0,174	0,174
0,445	0,165	0,160
0,446	0,155	0,159
0,447	0,146	0,158
0,448	0,137	0,143
0,449	0,128	0,128
0,45	0,119	0,124
0,451	0,111	0,104
0,452	0,102	0,103
0,453	0,093	0,103
0,454	0,085	0,078
0,455	0,076	0,074
0,456	0,067	0,075
0,457	0,058	0,046
0,458	0,049	0,033
0,459	0,040	0,037
0,46	0,031	0,021
0,461	0,022	0,027
0,462	0,013	0,037
0,463	0,004	0,020
0,464	-0,004	-0,005
0,465	-0,011	-0,023
0,466	-0,018	-0,022
0,467	-0,024	-0,021
0,468	-0,030	-0,035
0,469	-0,035	-0,044
0,47	-0,039	-0,038
0,471	-0,042	-0,043
0,472	-0,045	-0,036
0,473	-0,048	-0,024
0,474	-0,051	-0,055
0,475	-0,054	-0,072
0,476	-0,057	-0,057
0,477	-0,060	-0,065
0,478	-0,063	-0,076
0,479	-0,067	-0,069
0,48	-0,071	-0,058
0,481	-0,075	-0,062
0,482	-0,080	-0,076
0,483	-0,085	-0,087
0,484	-0,090	-0,098
0,485	-0,095	-0,108
0,486	-0,100	-0,113
0,487	-0,105	-0,096
0,488	-0,109	-0,088
0,489	-0,112	-0,104
0,49	-0,115	-0,109
0,491	-0,117	-0,107
0,492	-0,118	-0,105
0,493	-0,118	-0,118
0,494	-0,118	-0,138
0,495	-0,116	-0,146
0,496	-0,114	-0,151
0,497	-0,112	-0,140
0,498	-0,109	-0,100
0,499	-0,105	-0,082
0,5	-0,102	-0,068
0,501	-0,098	-0,063
0,502	-0,095	-0,087
0,503	-0,092	-0,083
0,504	-0,089	-0,088
0,505	-0,087	-0,101
0,506	-0,085	-0,100
0,507	-0,084	-0,093
0,508	-0,083	-0,083
0,509	-0,083	-0,095
0,51	-0,083	-0,096
0,511	-0,084	-0,092
0,512	-0,084	-0,100
0,513	-0,085	-0,089
0,514	-0,086	-0,073
0,515	-0,087	-0,074
0,516	-0,088	-0,078
0,517	-0,089	-0,078
0,518	-0,089	-0,082
0,519	-0,090	-0,081
0,52	-0,090	-0,084
0,521	-0,091	-0,090
0,522	-0,091	-0,091
0,523	-0,092	-0,090
0,524	-0,092	-0,098
0,525	-0,093	-0,108
0,526	-0,094	-0,107
0,527	-0,096	-0,104
0,528	-0,097	-0,113
0,529	-0,099	-0,111
0,53	-0,101	-0,102
0,531	-0,103	-0,091
0,532	-0,105	-0,090
0,533	-0,107	-0,096
0,534	-0,109	-0,105
0,535	-0,110	-0,100
0,536	-0,111	-0,101
0,537	-0,112	-0,128
0,538	-0,111	-0,116
0,539	-0,110	-0,100
0,54	-0,109	-0,096
0,541	-0,106	-0,095
0,542	-0,104	-0,120
0,543	-0,101	-0,130
0,544	-0,098	-0,107
0,545	-0,095	-0,099
0,546	-0,092	-0,098
0,547	-0,089	-0,077
0,548	-0,087	-0,066
0,549	-0,085	-0,078
0,55	-0,084	-0,093
0,551	-0,084	-0,091
0,552	-0,084	-0,091
0,553	-0,085	-0,088
0,554	-0,086	-0,089
0,555	-0,087	-0,090
0,556	-0,089	-0,077
0,557	-0,090	-0,081
0,558	-0,091	-0,075
0,559	-0,091	-0,077
0,56	-0,091	-0,094
0,561	-0,091	-0,095
0,562	-0,089	-0,097
0,563	-0,088	-0,098
0,564	-0,086	-0,092
0,565	-0,083	-0,087
0,566	-0,081	-0,085
0,567	-0,079	-0,085
0,568	-0,077	-0,093
0,569	-0,076	-0,081
0,57	-0,075	-0,066
0,571	-0,074	-0,073
0,572	-0,075	-0,069
0,573	-0,076	-0,052
0,574	-0,077	-0,064
0,575	-0,079	-0,084
0,576	-0,082	-0,087
0,577	-0,084	-0,087
0,578	-0,086	-0,070
0,579	-0,087	-0,074
0,58	-0,088	-0,097
0,581	-0,089	-0,103
0,582	-0,089	-0,103
0,583	-0,088	-0,097
0,584	-0,087	-0,093
0,585	-0,085	-0,088
0,586	-0,083	-0,076
0,587	-0,082	-0,074
0,588	-0,080	-0,079
0,589	-0,078	-0,079
0,59	-0,077	-0,077
0,591	-0,077	-0,086
0,592	-0,077	-0,077
0,593	-0,078	-0,066
0,594	-0,079	-0,085
0,595	-0,081	-0,085
0,596	-0,083	-0,082
0,597	-0,085	-0,078
0,598	-0,087	-0,057
0,599	-0,089	-0,064
0,6	-0,090	-0,098
0,601	-0,090	-0,112
0,602	-0,090	-0,100
0,603	-0,089	-0,089
0,604	-0,087	-0,089
0,605	-0,084	-0,095
0,606	-0,081	-0,109
0,607	-0,078	-0,092
0,608	-0,074	-0,065
0,609	-0,070	-0,064
0,61	-0,067	-0,057
0,611	-0,064	-0,060
0,612	-0,062	-0,066
0,613	-0,060	-0,054
0,614	-0,059	-0,049
0,615	-0,059	-0,046
0,616	-0,059	-0,045
0,617	-0,059	-0,062
0,618	-0,060	-0,054
0,619	-0,061	-0,050
0,62	-0,061	-0,069
0,621	-0,061	-0,060
0,622	-0,061	-0,068
0,623	-0,060	-0,082
0,624	-0,059	-0,084
0,625	-0,058	-0,081
0,626	-0,056	-0,054
0,627	-0,055	-0,047
0,628	-0,054	-0,056
0,629	-0,053	-0,057
0,63	-0,052	-0,052
0,631	-0,053	-0,035
0,632	-0,054	-0,032
0,633	-0,055	-0,041
0,634	-0,058	-0,051
0,635	-0,061	-0,064
0,636	-0,064	-0,060
0,637	-0,068	-0,047
0,638	-0,071	-0,040
0,639	-0,074	-0,074
0,64	-0,077	-0,106
0,641	-0,079	-0,112
0,642	-0,079	-0,119
0,643	-0,079	-0,114
0,644	-0,078	-0,106
0,645	-0,076	-0,075
0,646	-0,073	-0,034
0,647	-0,069	-0,037
0,648	-0,065	-0,055
0,649	-0,061	-0,051
0,65	-0,058	-0,041
0,651	-0,055	-0,046
0,652	-0,052	-0,045
0,653	-0,051	-0,042
0,654	-0,050	-0,059
0,655	-0,051	-0,070
0,656	-0,052	-0,065
0,657	-0,055	-0,055
0,658	-0,058	-0,053
0,659	-0,062	-0,059
0,66	-0,065	-0,075
0,661	-0,069	-0,080
0,662	-0,072	-0,076
0,663	-0,075	-0,079
0,664	-0,076	-0,081
0,665	-0,077	-0,084
0,666	-0,078	-0,083
0,667	-0,077	-0,076
0,668	-0,076	-0,058
0,669	-0,074	-0,048
0,67	-0,071	-0,055
0,671	-0,069	-0,069
0,672	-0,066	-0,075
0,673	-0,064	-0,067
0,674	-0,062	-0,062
0,675	-0,061	-0,060
0,676	-0,060	-0,055
0,677	-0,060	-0,059
0,678	-0,061	-0,063
0,679	-0,061	-0,065
0,68	-0,063	-0,073
0,681	-0,064	-0,083
0,682	-0,066	-0,080
0,683	-0,068	-0,080
0,684	-0,069	-0,075
0,685	-0,070	-0,064
0,686	-0,071	-0,070
0,687	-0,071	-0,060
0,688	-0,071	-0,043
0,689	-0,070	-0,037
0,69	-0,070	-0,049
0,691	-0,069	-0,072
0,692	-0,068	-0,070
0,693	-0,066	-0,073
0,694	-0,065	-0,092
0,695	-0,065	-0,095
0,696	-0,064	-0,069
0,697	-0,064	-0,055
0,698	-0,063	-0,074
0,699	-0,064	-0,084
0,7	-0,064	-0,067
0,701	-0,065	-0,045
0,702	-0,066	-0,036
0,703	-0,066	-0,045
0,704	-0,067	-0,068
0,705	-0,068	-0,070
0,706	-0,068	-0,066
0,707	-0,069	-0,070
0,708	-0,069	-0,076
0,709	-0,068	-0,082
0,71	-0,068	-0,081
0,711	-0,067	-0,083
0,712	-0,066	-0,068
0,713	-0,065	-0,062
0,714	-0,064	-0,068
0,715	-0,062	-0,042
0,716	-0,061	-0,033
0,717	-0,059	-0,045
0,718	-0,058	-0,047
0,719	-0,056	-0,055
0,72	-0,055	-0,068
0,721	-0,053	-0,069
0,722	-0,052	-0,064
0,723	-0,051	-0,065
0,724	-0,050	-0,068
0,725	-0,050	-0,057
0,726	-0,049	-0,034
0,727	-0,049	-0,041
0,728	-0,048	-0,052
0,729	-0,048	-0,036
0,73	-0,047	-0,047
0,731	-0,047	-0,050
0,732	-0,046	-0,032
0,733	-0,046	-0,036
0,734	-0,045	-0,035
0,735	-0,044	-0,031
0,736	-0,043	-0,045
0,737	-0,042	-0,054
0,738	-0,040	-0,056
0,739	-0,039	-0,048
0,74	-0,037	-0,039
0,741	-0,036	-0,045
0,742	-0,034	-0,041
0,743	-0,033	-0,037
0,744	-0,032	-0,044
0,745	-0,031	-0,021
0,746	-0,030	-0,010
0,747	-0,029	-0,023
0,748	-0,029	-0,029
0,749	-0,029	-0,031
0,75	-0,030	-0,029
0,751	-0,031	-0,030
0,752	-0,032	-0,028
0,753	-0,033	-0,021
0,754	-0,034	-0,016
0,755	-0,036	-0,018
0,756	-0,037	-0,050
0,757	-0,038	-0,073
0,758	-0,039	-0,047
0,759	-0,040	-0,032
0,76	-0,040	-0,050
0,761	-0,041	-0,056
0,762	-0,041	-0,052
0,763	-0,040	-0,050
0,764	-0,039	-0,038
0,765	-0,038	-0,034
0,766	-0,036	-0,024
0,767	-0,034	-0,019
0,768	-0,032	-0,019
0,769	-0,029	-0,006
0,77	-0,026	-0,005
0,771	-0,023	-0,010
0,772	-0,019	-0,014
0,773	-0,015	-0,038
0,774	-0,011	-0,048
0,775	-0,006	-0,021
0,776	-0,002	0,004
0,777	0,002	-0,007
0,778	0,006	-0,028
0,779	0,010	-0,004
0,78	0,013	0,024
0,781	0,016	0,021
0,782	0,017	0,035
0,783	0,018	0,042
0,784	0,018	0,036
0,785	0,016	0,035
0,786	0,013	0,019
0,787	0,010	0,008
0,788	0,005	0,015
0,789	-0,001	-0,009
0,79	-0,007	-0,035
0,791	-0,013	-0,029
0,792	-0,020	-0,028
0,793	-0,026	-0,035
0,794	-0,032	-0,034
0,795	-0,038	-0,043
0,796	-0,043	-0,043
0,797	-0,046	-0,044
0,798	-0,049	-0,056
0,799	-0,051	-0,044
0,8	-0,052	-0,035
0,801	-0,053	-0,030
0,802	-0,052	-0,033
0,803	-0,052	-0,043
0,804	-0,051	-0,049
0,805	-0,050	-0,073
0,806	-0,050	-0,070
0,807	-0,050	-0,058
0,808	-0,050	-0,055
0,809	-0,051	-0,047
0,81	-0,052	-0,050
0,811	-0,054	-0,051
0,812	-0,056	-0,060
0,813	-0,058	-0,075
0,814	-0,060	-0,060
0,815	-0,062	-0,051
0,816	-0,063	-0,061
0,817	-0,063	-0,061
0,818	-0,063	-0,066
0,819	-0,063	-0,053
0,82	-0,061	-0,031
0,821	-0,059	-0,043
0,822	-0,057	-0,071
0,823	-0,055	-0,070
0,824	-0,053	-0,056
0,825	-0,051	-0,056
0,826	-0,050	-0,054
0,827	-0,050	-0,053
0,828	-0,050	-0,043
0,829	-0,052	-0,053
0,83	-0,054	-0,077
0,831	-0,057	-0,078
0,832	-0,061	-0,071
0,833	-0,065	-0,048
0,834	-0,069	-0,051
0,835	-0,072	-0,071
0,836	-0,075	-0,067
0,837	-0,077	-0,063
0,838	-0,077	-0,060
0,839	-0,077	-0,055
0,84	-0,074	-0,061
0,841	-0,071	-0,078
0,842	-0,066	-0,079
0,843	-0,060	-0,068
0,844	-0,054	-0,072
0,845	-0,048	-0,076
0,846	-0,042	-0,071
0,847	-0,037	-0,059
0,848	-0,033	-0,035
0,849	-0,030	-0,017
0,85	-0,028	-0,019
0,851	-0,029	-0,009
0,852	-0,030	0,006
0,853	-0,033	0,001
0,854	-0,036	-0,016
0,855	-0,039	-0,035
0,856	-0,042	-0,065
0,857	-0,044	-0,086
0,858	-0,043	-0,060
0,859	-0,041	-0,039
0,86	-0,035	-0,037
0,861	-0,026	-0,014
0,862	-0,014	0,001
0,863	0,002	0,005
0,864	0,022	0,014
0,865	0,046	0,029
0,866	0,072	0,068
0,867	0,100	0,101
0,868	0,130	0,123
0,869	0,161	0,154
0,87	0,192	0,183
0,871	0,223	0,224
0,872	0,252	0,275
0,873	0,279	0,308
0,874	0,303	0,325
0,875	0,325	0,332
0,876	0,343	0,332
0,877	0,357	0,348
0,878	0,368	0,357
0,879	0,375	0,368
0,88	0,379	0,389
0,881	0,380	0,373
0,882	0,377	0,343
0,883	0,372	0,350
0,884	0,363	0,369
0,885	0,352	0,363
0,886	0,339	0,343
0,887	0,323	0,313
0,888	0,305	0,311
0,889	0,285	0,333
0,89	0,263	0,292
0,891	0,239	0,226
0,892	0,215	0,208
0,893	0,188	0,181
0,894	0,161	0,135
0,895	0,134	0,114
0,896	0,107	0,095
0,897	0,080	0,076
0,898	0,054	0,074
0,899	0,030	0,055
0,9	0,008	0,032
0,901	-0,012	0,003
0,902	-0,029	-0,048
0,903	-0,043	-0,070
0,904	-0,054	-0,068
0,905	-0,062	-0,063
0,906	-0,067	-0,058
0,907	-0,070	-0,065
0,908	-0,071	-0,072
0,909	-0,069	-0,080
0,91	-0,067	-0,079
0,911	-0,064	-0,064
0,912	-0,060	-0,046
0,913	-0,056	-0,036
0,914	-0,053	-0,042
0,915	-0,050	-0,045
0,916	-0,048	-0,053
0,917	-0,047	-0,059
0,918	-0,047	-0,055
0,919	-0,048	-0,045
0,92	-0,049	-0,040
0,921	-0,051	-0,051
0,922	-0,052	-0,060
0,923	-0,054	-0,063
0,924	-0,056	-0,052
0,925	-0,057	-0,054
0,926	-0,058	-0,060
0,927	-0,059	-0,061
0,928	-0,059	-0,070
0,929	-0,060	-0,071
0,93	-0,060	-0,069
0,931	-0,060	-0,052
0,932	-0,060	-0,047
0,933	-0,061	-0,052
0,934	-0,061	-0,043
0,935	-0,063	-0,054
0,936	-0,064	-0,070
0,937	-0,066	-0,064
0,938	-0,068	-0,067
0,939	-0,071	-0,075
0,94	-0,073	-0,076
0,941	-0,074	-0,085
0,942	-0,075	-0,087
0,943	-0,076	-0,080
0,944	-0,076	-0,079
0,945	-0,075	-0,080
0,946	-0,073	-0,074
0,947	-0,070	-0,069
0,948	-0,067	-0,067
0,949	-0,064	-0,059
0,95	-0,060	-0,055
0,951	-0,056	-0,043
0,952	-0,053	-0,035
0,953	-0,050	-0,043
0,954	-0,048	-0,048
0,955	-0,047	-0,052
0,956	-0,047	-0,058
0,957	-0,047	-0,063
0,958	-0,048	-0,061
0,959	-0,050	-0,043
0,96	-0,052	-0,035
0,961	-0,054	-0,057
0,962	-0,056	-0,066
0,963	-0,058	-0,048
0,964	-0,059	-0,058
0,965	-0,060	-0,067
0,966	-0,060	-0,064
0,967	-0,059	-0,081
0,968	-0,057	-0,069
0,969	-0,054	-0,026
0,97	-0,051	-0,028
0,971	-0,048	-0,053
0,972	-0,044	-0,043
0,973	-0,041	-0,025
0,974	-0,038	-0,031
0,975	-0,036	-0,046
0,976	-0,035	-0,051
0,977	-0,034	-0,046
0,978	-0,035	-0,042
0,979	-0,036	-0,035
0,98	-0,039	-0,027
0,981	-0,042	-0,038
0,982	-0,045	-0,046
0,983	-0,049	-0,046
0,984	-0,053	-0,057
0,985	-0,057	-0,070
0,986	-0,060	-0,062
0,987	-0,062	-0,051
0,988	-0,064	-0,054
0,989	-0,064	-0,060
0,99	-0,064	-0,063
0,991	-0,063	-0,064
0,992	-0,061	-0,070
0,993	-0,058	-0,064
0,994	-0,055	-0,050
0,995	-0,051	-0,057
0,996	-0,046	-0,056
0,997	-0,042	-0,033
0,998	-0,037	-0,031
0,999	-0,033	-0,045
1	-0,028	-0,026
1,001	-0,024	-0,007
1,002	-0,020	-0,018
1,003	-0,016	-0,019
1,004	-0,013	-0,008
1,005	-0,010	-0,011
1,006	-0,007	-0,015
1,007	-0,004	-0,015
1,008	-0,002	-0,017
1,009	-0,000	-0,002
1,01	0,001	0,014
1,011	0,003	0,007
1,012	0,004	0,014
1,013	0,004	0,020
1,014	0,005	0,004
1,015	0,004	-0,002
1,016	0,004	-0,008
1,017	0,003	-0,010
1,018	0,002	0,000
1,019	0,000	0,006
1,02	-0,001	0,011
1,021	-0,003	0,004
1,022	-0,004	-0,019
1,023	-0,005	-0,026
1,024	-0,006	0,000
1,025	-0,006	0,004
1,026	-0,006	0,003
1,027	-0,006	0,018
1,028	-0,004	0,013
1,029	-0,003	-0,007
1,03	-0,000	-0,024
1,031	0,002	-0,016
1,032	0,005	-0,000
1,033	0,009	0,004
1,034	0,012	0,013
1,035	0,016	0,012
1,036	0,019	-0,000
1,037	0,023	0,028
1,038	0,026	0,055
1,039	0,029	0,040
1,04	0,032	0,037
1,041	0,035	0,040
1,042	0,038	0,042
1,043	0,041	0,045
1,044	0,043	0,041
1,045	0,045	0,050
1,046	0,048	0,048
1,047	0,050	0,042
1,048	0,053	0,039
1,049	0,055	0,040
1,05	0,058	0,054
1,051	0,060	0,049
1,052	0,063	0,049
1,053	0,065	0,061
1,054	0,068	0,072
1,055	0,071	0,091
1,056	0,074	0,099
1,057	0,077	0,095
1,058	0,081	0,096
1,059	0,084	0,084
1,06	0,088	0,072
1,061	0,093	0,085
1,062	0,097	0,100
1,063	0,103	0,096
1,064	0,108	0,096
1,065	0,113	0,115
1,066	0,119	0,120
1,067	0,124	0,117
1,068	0,130	0,119
1,069	0,135	0,130
1,07	0,140	0,144
1,071	0,144	0,150
1,072	0,148	0,156
1,073	0,151	0,159
1,074	0,153	0,158
1,075	0,154	0,149
1,076	0,155	0,149
1,077	0,156	0,153
1,078	0,156	0,157
1,079	0,155	0,166
1,08	0,155	0,166
1,081	0,155	0,150
1,082	0,156	0,151
1,083	0,157	0,163
1,084	0,159	0,157
1,085	0,161	0,169
1,086	0,165	0,175
1,087	0,169	0,152
1,088	0,174	0,132
1,089	0,180	0,156
1,09	0,186	0,208
1,091	0,192	0,202
1,092	0,199	0,187
1,093	0,206	0,220
1,094	0,212	0,240
1,095	0,217	0,226
1,096	0,222	0,217
1,097	0,226	0,230
1,098	0,229	0,236
1,099	0,231	0,230
1,1	0,232	0,231
1,101	0,233	0,226
1,102	0,233	0,224
1,103	0,232	0,222
1,104	0,230	0,216
1,105	0,229	0,228
1,106	0,227	0,227
1,107	0,225	0,219
1,108	0,223	0,232
1,109	0,221	0,234
1,11	0,219	0,221
1,111	0,217	0,195
1,112	0,215	0,208
1,113	0,212	0,239
1,114	0,209	0,225
1,115	0,206	0,224
1,116	0,203	0,221
1,117	0,198	0,186
1,118	0,193	0,167
1,119	0,188	0,174
1,12	0,182	0,171
1,121	0,175	0,164
1,122	0,167	0,170
1,123	0,159	0,164
1,124	0,151	0,147
1,125	0,142	0,149
1,126	0,133	0,153
1,127	0,123	0,128
1,128	0,114	0,109
1,129	0,104	0,107
1,13	0,094	0,096
1,131	0,084	0,084
1,132	0,074	0,070
1,133	0,063	0,055
1,134	0,053	0,048
1,135	0,043	0,044
1,136	0,033	0,033
1,137	0,024	0,020
1,138	0,014	0,010
1,139	0,005	0,010
1,14	-0,003	-0,001
1,141	-0,011	-0,015
1,142	-0,019	-0,009
1,143	-0,025	-0,016
1,144	-0,031	-0,020
1,145	-0,035	-0,032
1,146	-0,039	-0,048
1,147	-0,042	-0,046
1,148	-0,044	-0,049
1,149	-0,046	-0,053
1,15	-0,047	-0,051
1,151	-0,048	-0,052
1,152	-0,049	-0,058
1,153	-0,050	-0,045
1,154	-0,050	-0,043
1,155	-0,052	-0,056
1,156	-0,053	-0,056
1,157	-0,056	-0,052
1,158	-0,059	-0,046
1,159	-0,062	-0,048
1,16	-0,066	-0,066
1,161	-0,070	-0,073
1,162	-0,075	-0,062
1,163	-0,080	-0,070
1,164	-0,085	-0,090
1,165	-0,090	-0,102
1,166	-0,094	-0,107
1,167	-0,098	-0,117
1,168	-0,101	-0,125
1,169	-0,104	-0,108
1,17	-0,107	-0,098
1,171	-0,108	-0,099
1,172	-0,109	-0,095
1,173	-0,110	-0,087
1,174	-0,110	-0,090
1,175	-0,110	-0,115
1,176	-0,109	-0,130
1,177	-0,108	-0,123
1,178	-0,107	-0,101
1,179	-0,106	-0,090
1,18	-0,105	-0,102
1,181	-0,104	-0,114
1,182	-0,102	-0,113
1,183	-0,101	-0,099
1,184	-0,100	-0,091
1,185	-0,099	-0,097
1,186	-0,098	-0,101
1,187	-0,096	-0,098
1,188	-0,095	-0,106
1,189	-0,094	-0,109
1,19	-0,092	-0,094
1,191	-0,091	-0,085
1,192	-0,089	-0,084
1,193	-0,088	-0,085
1,194	-0,087	-0,103
1,195	-0,086	-0,084
1,196	-0,086	-0,048
1,197	-0,085	-0,048
1,198	-0,086	-0,077
1,199	-0,086	-0,106
1,2	-0,087	-0,104
1,201	-0,088	-0,101
1,202	-0,090	-0,101
1,203	-0,092	-0,108
1,204	-0,094	-0,107
1,205	-0,096	-0,101
1,206	-0,098	-0,105
1,207	-0,100	-0,095
1,208	-0,101	-0,088
1,209	-0,102	-0,087
1,21	-0,103	-0,083
1,211	-0,103	-0,084
1,212	-0,103	-0,094
1,213	-0,102	-0,110
1,214	-0,101	-0,120
1,215	-0,099	-0,105
1,216	-0,097	-0,089
1,217	-0,095	-0,104
1,218	-0,093	-0,115
1,219	-0,091	-0,105
1,22	-0,089	-0,089
1,221	-0,087	-0,070
1,222	-0,085	-0,067
1,223	-0,084	-0,079
1,224	-0,083	-0,076
1,225	-0,082	-0,077
1,226	-0,082	-0,100
1,227	-0,083	-0,102
1,228	-0,083	-0,092
1,229	-0,084	-0,087
1,23	-0,085	-0,076
1,231	-0,086	-0,071
1,232	-0,087	-0,074
1,233	-0,088	-0,078
1,234	-0,089	-0,087
1,235	-0,090	-0,095
1,236	-0,090	-0,100
1,237	-0,090	-0,096
1,238	-0,089	-0,085
1,239	-0,088	-0,078
1,24	-0,087	-0,094
1,241	-0,085	-0,106
1,242	-0,084	-0,092
1,243	-0,082	-0,083
1,244	-0,081	-0,083
1,245	-0,079	-0,069
1,246	-0,078	-0,063
1,247	-0,077	-0,072
1,248	-0,077	-0,078
1,249	-0,076	-0,075
1,25	-0,076	-0,071
1,251	-0,077	-0,073
1,252	-0,078	-0,083
1,253	-0,078	-0,089
1,254	-0,080	-0,078
1,255	-0,081	-0,069
1,256	-0,082	-0,080
1,257	-0,082	-0,092
1,258	-0,083	-0,096
1,259	-0,083	-0,097
1,26	-0,083	-0,087
1,261	-0,083	-0,067
1,262	-0,082	-0,070
1,263	-0,080	-0,085
1,264	-0,079	-0,082
1,265	-0,077	-0,072
1,266	-0,075	-0,068
1,267	-0,072	-0,068
1,268	-0,070	-0,068
1,269	-0,068	-0,071
1,27	-0,066	-0,067
1,271	-0,064	-0,054
1,272	-0,063	-0,062
1,273	-0,062	-0,086
1,274	-0,062	-0,092
1,275	-0,062	-0,061
1,276	-0,063	-0,047
1,277	-0,064	-0,056
1,278	-0,066	-0,056
1,279	-0,068	-0,061
1,28	-0,071	-0,064
1,281	-0,073	-0,084
1,282	-0,076	-0,088
1,283	-0,079	-0,065
1,284	-0,082	-0,066
1,285	-0,085	-0,089
1,286	-0,088	-0,105
1,287	-0,090	-0,096
1,288	-0,092	-0,098
1,289	-0,093	-0,112
1,29	-0,094	-0,098
1,291	-0,094	-0,081
1,292	-0,093	-0,081
1,293	-0,092	-0,083
1,294	-0,091	-0,075
1,295	-0,088	-0,079
1,296	-0,085	-0,091
1,297	-0,082	-0,085
1,298	-0,079	-0,084
1,299	-0,075	-0,084
1,3	-0,071	-0,070
1,301	-0,067	-0,066
1,302	-0,063	-0,070
1,303	-0,060	-0,066
1,304	-0,057	-0,070
1,305	-0,055	-0,069
1,306	-0,053	-0,053
1,307	-0,052	-0,038
1,308	-0,051	-0,033
1,309	-0,051	-0,042
1,31	-0,052	-0,041
1,311	-0,053	-0,039
1,312	-0,055	-0,058
1,313	-0,057	-0,062
1,314	-0,059	-0,055
1,315	-0,061	-0,068
1,316	-0,063	-0,078
1,317	-0,065	-0,079
1,318	-0,066	-0,089
1,319	-0,067	-0,088
1,32	-0,067	-0,070
1,321	-0,067	-0,050
1,322	-0,066	-0,043
1,323	-0,066	-0,041
1,324	-0,064	-0,039
1,325	-0,063	-0,048
1,326	-0,061	-0,062
1,327	-0,060	-0,081
1,328	-0,059	-0,075
1,329	-0,058	-0,067
1,33	-0,057	-0,079
1,331	-0,057	-0,069
1,332	-0,057	-0,060
1,333	-0,057	-0,056
1,334	-0,058	-0,039
1,335	-0,059	-0,036
1,336	-0,061	-0,062
1,337	-0,062	-0,070
1,338	-0,063	-0,058
1,339	-0,065	-0,058
1,34	-0,066	-0,064
1,341	-0,066	-0,065
1,342	-0,066	-0,058
1,343	-0,066	-0,072
1,344	-0,066	-0,090
1,345	-0,065	-0,082
1,346	-0,064	-0,071
1,347	-0,063	-0,053
1,348	-0,062	-0,044
1,349	-0,061	-0,053
1,35	-0,060	-0,058
1,351	-0,059	-0,065
1,352	-0,059	-0,061
1,353	-0,059	-0,051
1,354	-0,059	-0,054
1,355	-0,060	-0,053
1,356	-0,061	-0,068
1,357	-0,062	-0,076
1,358	-0,063	-0,072
1,359	-0,065	-0,069
1,36	-0,066	-0,071
1,361	-0,067	-0,071
1,362	-0,068	-0,049
1,363	-0,069	-0,048
1,364	-0,069	-0,072
1,365	-0,069	-0,080
1,366	-0,069	-0,063
1,367	-0,068	-0,061
1,368	-0,068	-0,071
1,369	-0,066	-0,070
1,37	-0,065	-0,069
1,371	-0,064	-0,066
1,372	-0,063	-0,064
1,373	-0,062	-0,064
1,374	-0,061	-0,066
1,375	-0,060	-0,067
1,376	-0,059	-0,067
1,377	-0,059	-0,068
1,378	-0,059	-0,054
1,379	-0,059	-0,040
1,38	-0,059	-0,047
1,381	-0,060	-0,050
1,382	-0,061	-0,045
1,383	-0,061	-0,057
1,384	-0,062	-0,076
1,385	-0,063	-0,073
1,386	-0,064	-0,082
1,387	-0,065	-0,082
1,388	-0,066	-0,060
1,389	-0,067	-0,061
1,39	-0,068	-0,059
1,391	-0,069	-0,067
1,392	-0,071	-0,086
1,393	-0,072	-0,082
1,394	-0,073	-0,059
1,395	-0,073	-0,051
1,396	-0,074	-0,076
1,397	-0,074	-0,091
1,398	-0,075	-0,090
1,399	-0,074	-0,084
1,4	-0,074	-0,055
1,401	-0,073	-0,042
1,402	-0,072	-0,056
1,403	-0,071	-0,062
1,404	-0,070	-0,071
1,405	-0,068	-0,082
1,406	-0,067	-0,075
1,407	-0,065	-0,083
1,408	-0,063	-0,096
1,409	-0,062	-0,075
1,41	-0,061	-0,056
1,411	-0,060	-0,055
1,412	-0,059	-0,060
1,413	-0,058	-0,050
1,414	-0,057	-0,040
1,415	-0,056	-0,050
1,416	-0,055	-0,044
1,417	-0,054	-0,048
1,418	-0,053	-0,051
1,419	-0,051	-0,038
1,42	-0,049	-0,042
1,421	-0,046	-0,039
1,422	-0,043	-0,046
1,423	-0,040	-0,064
1,424	-0,037	-0,058
1,425	-0,033	-0,051
1,426	-0,030	-0,043
1,427	-0,027	-0,038
1,428	-0,024	-0,021
1,429	-0,022	-0,005
1,43	-0,021	-0,012
1,431	-0,020	-0,018
1,432	-0,020	-0,018
1,433	-0,021	-0,005
1,434	-0,022	-0,005
1,435	-0,024	-0,019
1,436	-0,026	-0,028
1,437	-0,028	-0,030
1,438	-0,031	-0,029
1,439	-0,033	-0,036
1,44	-0,034	-0,040
1,441	-0,035	-0,042
1,442	-0,036	-0,044
1,443	-0,036	-0,040
1,444	-0,035	-0,034
1,445	-0,033	-0,042
1,446	-0,031	-0,047
1,447	-0,028	-0,038
1,448	-0,025	-0,020
1,449	-0,022	-0,003
1,45	-0,019	0,000
1,451	-0,017	-0,006
1,452	-0,015	-0,028
1,453	-0,014	-0,025
1,454	-0,013	0,003
1,455	-0,013	0,001
1,456	-0,014	-0,011
1,457	-0,015	-0,020
1,458	-0,016	-0,026
1,459	-0,017	-0,018
1,46	-0,018	-0,011
1,461	-0,018	-0,024
1,462	-0,018	-0,030
1,463	-0,017	-0,031
1,464	-0,016	-0,025
1,465	-0,013	-0,003
1,466	-0,010	-0,008
1,467	-0,007	-0,007
1,468	-0,003	0,004
1,469	0,002	0,002
1,47	0,006	0,004
1,471	0,009	0,009
1,472	0,013	0,026
1,473	0,015	0,037
1,474	0,016	0,021
1,475	0,016	0,012
1,476	0,015	0,010
1,477	0,013	-0,000
1,478	0,009	-0,005
1,479	0,004	-0,002
1,48	-0,001	-0,007
1,481	-0,007	-0,013
1,482	-0,013	-0,005
1,483	-0,020	-0,001
1,484	-0,026	-0,017
1,485	-0,032	-0,040
1,486	-0,038	-0,049
1,487	-0,043	-0,052
1,488	-0,047	-0,038
1,489	-0,050	-0,040
1,49	-0,053	-0,055
1,491	-0,056	-0,060
1,492	-0,057	-0,062
1,493	-0,059	-0,057
1,494	-0,060	-0,047
1,495	-0,060	-0,037
1,496	-0,061	-0,058
1,497	-0,061	-0,078
1,498	-0,061	-0,078
1,499	-0,061	-0,071
1,5	-0,061	-0,066
1,501	-0,060	-0,058
1,502	-0,060	-0,053
1,503	-0,059	-0,067
1,504	-0,058	-0,060
1,505	-0,057	-0,047
1,506	-0,056	-0,045
1,507	-0,055	-0,050
1,508	-0,054	-0,052
1,509	-0,053	-0,059
1,51	-0,052	-0,059
1,511	-0,052	-0,040
1,512	-0,052	-0,039
1,513	-0,052	-0,050
1,514	-0,053	-0,068
1,515	-0,055	-0,070
1,516	-0,057	-0,053
1,517	-0,059	-0,064
1,518	-0,061	-0,085
1,519	-0,064	-0,069
1,52	-0,065	-0,056
1,521	-0,067	-0,059
1,522	-0,067	-0,042
1,523	-0,067	-0,045
1,524	-0,066	-0,061
1,525	-0,063	-0,065
1,526	-0,060	-0,063
1,527	-0,056	-0,069
1,528	-0,051	-0,078
1,529	-0,045	-0,068
1,53	-0,039	-0,050
1,531	-0,033	-0,021
1,532	-0,028	-0,012
1,533	-0,023	-0,009
1,534	-0,019	0,001
1,535	-0,017	-0,005
1,536	-0,015	-0,026
1,537	-0,016	-0,033
1,538	-0,017	-0,019
1,539	-0,020	-0,013
1,54	-0,024	-0,012
1,541	-0,029	-0,021
1,542	-0,033	-0,040
1,543	-0,038	-0,066
1,544	-0,041	-0,063
1,545	-0,043	-0,036
1,546	-0,043	-0,030
1,547	-0,041	-0,031
1,548	-0,035	-0,031
1,549	-0,027	-0,026
1,55	-0,015	-0,018
1,551	-0,001	-0,002
1,552	0,017	0,028
1,553	0,039	0,057
1,554	0,062	0,068
1,555	0,089	0,080
1,556	0,116	0,099
1,557	0,145	0,125
1,558	0,175	0,166
1,559	0,204	0,203
1,56	0,233	0,229
1,561	0,261	0,252
1,562	0,287	0,306
1,563	0,311	0,350
1,564	0,332	0,341
1,565	0,351	0,348
1,566	0,366	0,364
1,567	0,378	0,361
1,568	0,387	0,383
1,569	0,392	0,396
1,57	0,393	0,387
1,571	0,391	0,380
1,572	0,387	0,378
1,573	0,378	0,372
1,574	0,366	0,365
1,575	0,352	0,353
1,576	0,334	0,341
1,577	0,315	0,337
1,578	0,292	0,317
1,579	0,268	0,267
1,58	0,242	0,234
1,581	0,215	0,212
1,582	0,188	0,178
1,583	0,160	0,151
1,584	0,132	0,118
1,585	0,104	0,092
1,586	0,078	0,081
1,587	0,053	0,060
1,588	0,029	0,036
1,589	0,009	0,026
1,59	-0,009	0,003
1,591	-0,025	-0,036
1,592	-0,038	-0,053
1,593	-0,048	-0,048
1,594	-0,055	-0,039
1,595	-0,060	-0,057
1,596	-0,062	-0,075
1,597	-0,062	-0,065
1,598	-0,061	-0,064
1,599	-0,058	-0,065
1,6	-0,055	-0,054
1,601	-0,051	-0,042
1,602	-0,048	-0,039
1,603	-0,045	-0,041
1,604	-0,042	-0,045
1,605	-0,040	-0,043
1,606	-0,040	-0,045
1,607	-0,040	-0,040
1,608	-0,041	-0,026
1,609	-0,044	-0,040
1,61	-0,047	-0,057
1,611	-0,050	-0,059
1,612	-0,054	-0,062
1,613	-0,058	-0,060
1,614	-0,062	-0,061
1,615	-0,066	-0,074
1,616	-0,070	-0,072
1,617	-0,072	-0,065
1,618	-0,074	-0,070
1,619	-0,076	-0,060
1,62	-0,077	-0,058
1,621	-0,077	-0,063
1,622	-0,077	-0,079
1,623	-0,076	-0,092
1,624	-0,075	-0,095
1,625	-0,074	-0,102
1,626	-0,073	-0,083
1,627	-0,072	-0,054
1,628	-0,071	-0,057
1,629	-0,070	-0,067
1,63	-0,069	-0,070
1,631	-0,068	-0,074
1,632	-0,067	-0,067
1,633	-0,066	-0,060
1,634	-0,065	-0,060
1,635	-0,064	-0,054
1,636	-0,063	-0,055
1,637	-0,062	-0,068
1,638	-0,061	-0,069
1,639	-0,060	-0,062
1,64	-0,059	-0,056
1,641	-0,058	-0,057
1,642	-0,057	-0,066
1,643	-0,056	-0,070
1,644	-0,055	-0,052
1,645	-0,055	-0,047
1,646	-0,055	-0,065
1,647	-0,056	-0,052
1,648	-0,057	-0,046
1,649	-0,058	-0,059
1,65	-0,059	-0,056
1,651	-0,060	-0,058
1,652	-0,061	-0,069
1,653	-0,062	-0,068
1,654	-0,063	-0,055
1,655	-0,064	-0,047
1,656	-0,063	-0,057
1,657	-0,063	-0,068
1,658	-0,061	-0,065
1,659	-0,059	-0,071
1,66	-0,057	-0,067
1,661	-0,054	-0,051
1,662	-0,051	-0,054
1,663	-0,048	-0,059
1,664	-0,045	-0,049
1,665	-0,043	-0,041
1,666	-0,040	-0,029
1,667	-0,038	-0,021
1,668	-0,037	-0,033
1,669	-0,036	-0,033
1,67	-0,035	-0,039
1,671	-0,035	-0,045
1,672	-0,035	-0,041
1,673	-0,036	-0,036
1,674	-0,036	-0,034
1,675	-0,037	-0,045
1,676	-0,037	-0,037
1,677	-0,037	-0,032
1,678	-0,037	-0,032
1,679	-0,036	-0,024
1,68	-0,035	-0,029
1,681	-0,033	-0,038
1,682	-0,031	-0,035
1,683	-0,029	-0,019
1,684	-0,027	-0,025
1,685	-0,025	-0,047
1,686	-0,022	-0,044
1,687	-0,020	-0,025
1,688	-0,019	-0,014
1,689	-0,017	-0,017
1,69	-0,016	-0,019
1,691	-0,015	-0,017
1,692	-0,015	-0,000
1,693	-0,015	0,010
1,694	-0,015	-0,001
1,695	-0,015	-0,009
1,696	-0,015	-0,015
1,697	-0,015	-0,022
1,698	-0,014	-0,016
1,699	-0,013	-0,010
1,7	-0,012	-0,021
1,701	-0,011	-0,022
1,702	-0,010	-0,027
1,703	-0,008	-0,035
1,704	-0,006	-0,022
1,705	-0,004	-0,013
1,706	-0,002	0,006
1,707	-0,000	0,028
1,708	0,001	0,029
1,709	0,003	0,029
1,71	0,004	0,025
1,711	0,005	-0,006
1,712	0,005	-0,004
1,713	0,006	0,010
1,714	0,007	-0,008
1,715	0,007	-0,003
1,716	0,008	0,002
1,717	0,009	0,003
1,718	0,010	0,007
1,719	0,012	0,007
1,72	0,014	0,016
1,721	0,016	0,008
1,722	0,018	0,002
1,723	0,020	0,028
1,724	0,022	0,040
1,725	0,024	0,031
1,726	0,026	0,034
1,727	0,028	0,033
1,728	0,029	0,040
1,729	0,031	0,034
1,73	0,031	0,018
1,731	0,032	0,037
1,732	0,033	0,040
1,733	0,033	0,032
1,734	0,034	0,024
1,735	0,036	0,010
1,736	0,038	0,029
1,737	0,040	0,044
1,738	0,044	0,056
1,739	0,048	0,056
1,74	0,053	0,049
1,741	0,059	0,060
1,742	0,065	0,060
1,743	0,072	0,070
1,744	0,079	0,090
1,745	0,086	0,089
1,746	0,092	0,086
1,747	0,099	0,099
1,748	0,104	0,112
1,749	0,109	0,121
1,75	0,113	0,117
1,751	0,116	0,102
1,752	0,118	0,104
1,753	0,119	0,120
1,754	0,120	0,118
1,755	0,120	0,111
1,756	0,120	0,111
1,757	0,120	0,120
1,758	0,120	0,129
1,759	0,121	0,131
1,76	0,122	0,140
1,761	0,125	0,130
1,762	0,128	0,109
1,763	0,132	0,127
1,764	0,137	0,152
1,765	0,142	0,147
1,766	0,148	0,142
1,767	0,155	0,152
1,768	0,162	0,165
1,769	0,169	0,164
1,77	0,175	0,160
1,771	0,182	0,165
1,772	0,188	0,175
1,773	0,194	0,192
1,774	0,199	0,215
1,775	0,204	0,230
1,776	0,208	0,235
1,777	0,212	0,225
1,778	0,215	0,207
1,779	0,218	0,209
1,78	0,221	0,217
1,781	0,224	0,216
1,782	0,226	0,218
1,783	0,228	0,215
1,784	0,229	0,226
1,785	0,231	0,234
1,786	0,232	0,228
1,787	0,232	0,239
1,788	0,232	0,239
1,789	0,232	0,225
1,79	0,231	0,219
1,791	0,230	0,225
1,792	0,228	0,233
1,793	0,225	0,236
1,794	0,223	0,238
1,795	0,220	0,238
1,796	0,217	0,231
1,797	0,214	0,216
1,798	0,211	0,203
1,799	0,208	0,193
1,8	0,205	0,190
1,801	0,203	0,184
1,802	0,201	0,187
1,803	0,199	0,207
1,804	0,197	0,205
1,805	0,195	0,192
1,806	0,193	0,199
1,807	0,190	0,198
1,808	0,187	0,174
1,809	0,182	0,176
1,81	0,177	0,196
1,811	0,171	0,191
1,812	0,164	0,172
1,813	0,156	0,149
1,814	0,147	0,139
1,815	0,137	0,125
1,816	0,126	0,120
1,817	0,115	0,121
1,818	0,103	0,115
1,819	0,091	0,102
1,82	0,079	0,070
1,821	0,067	0,064
1,822	0,056	0,060
1,823	0,044	0,034
1,824	0,034	0,009
1,825	0,024	0,016
1,826	0,014	0,030
1,827	0,006	0,013
1,828	-0,003	-0,007
1,829	-0,010	-0,013
1,83	-0,017	-0,018
1,831	-0,023	-0,020
1,832	-0,029	-0,022
1,833	-0,035	-0,028
1,834	-0,039	-0,028
1,835	-0,044	-0,040
1,836	-0,048	-0,054
1,837	-0,052	-0,044
1,838	-0,056	-0,043
1,839	-0,059	-0,049
1,84	-0,062	-0,064
1,841	-0,065	-0,090
1,842	-0,067	-0,101
1,843	-0,070	-0,107
1,844	-0,072	-0,071
1,845	-0,075	-0,045
1,846	-0,077	-0,070
1,847	-0,079	-0,091
1,848	-0,081	-0,091
1,849	-0,084	-0,067
1,85	-0,086	-0,053
1,851	-0,088	-0,071
1,852	-0,090	-0,090
1,853	-0,092	-0,082
1,854	-0,093	-0,080
1,855	-0,095	-0,095
1,856	-0,096	-0,107
1,857	-0,097	-0,120
1,858	-0,097	-0,121
1,859	-0,097	-0,114
1,86	-0,097	-0,111
1,861	-0,096	-0,095
1,862	-0,096	-0,073
1,863	-0,095	-0,080
1,864	-0,094	-0,099
1,865	-0,093	-0,101
1,866	-0,093	-0,098
1,867	-0,092	-0,095
1,868	-0,092	-0,084
1,869	-0,092	-0,075
1,87	-0,092	-0,076
1,871	-0,092	-0,088
1,872	-0,093	-0,099
1,873	-0,094	-0,091
1,874	-0,094	-0,085
1,875	-0,095	-0,090
1,876	-0,095	-0,103
1,877	-0,096	-0,112
1,878	-0,096	-0,112
1,879	-0,096	-0,110
1,88	-0,096	-0,100
1,881	-0,096	-0,103
1,882	-0,096	-0,106
1,883	-0,095	-0,091
1,884	-0,095	-0,080
1,885	-0,095	-0,077
1,886	-0,095	-0,083
1,887	-0,095	-0,098
1,888	-0,096	-0,104
1,889	-0,097	-0,096
1,89	-0,098	-0,086
1,891	-0,099	-0,079
1,892	-0,100	-0,098
1,893	-0,101	-0,107
1,894	-0,102	-0,103
1,895	-0,103	-0,114
1,896	-0,104	-0,118
1,897	-0,104	-0,117
1,898	-0,104	-0,110
1,899	-0,103	-0,101
1,9	-0,102	-0,098
1,901	-0,100	-0,106
1,902	-0,099	-0,110
1,903	-0,097	-0,111
1,904	-0,096	-0,095
1,905	-0,094	-0,071
1,906	-0,093	-0,081
1,907	-0,092	-0,079
1,908	-0,091	-0,060
1,909	-0,091	-0,068
1,91	-0,091	-0,085
1,911	-0,092	-0,106
1,912	-0,092	-0,116
1,913	-0,093	-0,126
1,914	-0,094	-0,118
1,915	-0,094	-0,098
1,916	-0,094	-0,098
1,917	-0,094	-0,100
1,918	-0,094	-0,091
1,919	-0,092	-0,073
1,92	-0,091	-0,074
1,921	-0,088	-0,068
1,922	-0,086	-0,074
1,923	-0,083	-0,106
1,924	-0,080	-0,104
1,925	-0,077	-0,074
1,926	-0,074	-0,049
1,927	-0,072	-0,049
1,928	-0,070	-0,064
1,929	-0,069	-0,080
1,93	-0,069	-0,087
1,931	-0,069	-0,080
1,932	-0,070	-0,080
1,933	-0,072	-0,077
1,934	-0,074	-0,082
1,935	-0,077	-0,079
1,936	-0,079	-0,072
1,937	-0,082	-0,077
1,938	-0,084	-0,083
1,939	-0,087	-0,096
1,94	-0,089	-0,078
1,941	-0,090	-0,059
1,942	-0,091	-0,071
1,943	-0,092	-0,089
1,944	-0,092	-0,098
1,945	-0,091	-0,087
1,946	-0,091	-0,106
1,947	-0,090	-0,135
1,948	-0,089	-0,120
1,949	-0,089	-0,092
1,95	-0,088	-0,080
1,951	-0,087	-0,071
1,952	-0,086	-0,061
1,953	-0,086	-0,064
1,954	-0,085	-0,073
1,955	-0,085	-0,080
1,956	-0,084	-0,089
1,957	-0,083	-0,094
1,958	-0,082	-0,099
1,959	-0,081	-0,092
1,96	-0,079	-0,080
1,961	-0,078	-0,076
1,962	-0,076	-0,067
1,963	-0,073	-0,075
1,964	-0,071	-0,082
1,965	-0,069	-0,072
1,966	-0,067	-0,060
1,967	-0,065	-0,050
1,968	-0,063	-0,056
1,969	-0,062	-0,063
1,97	-0,061	-0,067
1,971	-0,061	-0,076
1,972	-0,061	-0,067
1,973	-0,062	-0,059
1,974	-0,063	-0,062
1,975	-0,064	-0,059
1,976	-0,066	-0,062
1,977	-0,067	-0,059
1,978	-0,069	-0,061
1,979	-0,070	-0,075
1,98	-0,071	-0,080
1,981	-0,072	-0,080
1,982	-0,072	-0,077
1,983	-0,073	-0,065
1,984	-0,073	-0,062
1,985	-0,073	-0,069
1,986	-0,072	-0,085
1,987	-0,072	-0,087
1,988	-0,071	-0,064
1,989	-0,071	-0,065
1,99	-0,071	-0,076
1,991	-0,070	-0,075
1,992	-0,070	-0,075
1,993	-0,070	-0,072
1,994	-0,070	-0,055
1,995	-0,070	-0,049
1,996	-0,069	-0,062
1,997	-0,069	-0,078
1,998	-0,068	-0,076
1,999	-0,067	-0,068
2	-0,065	-0,064
2,001	-0,063	-0,057
2,002	-0,061	-0,075
2,003	-0,059	-0,078
2,004	-0,056	-0,052
2,005	-0,054	-0,053
2,006	-0,051	-0,051
2,007	-0,049	-0,048
2,008	-0,047	-0,049
2,009	-0,046	-0,040
2,01	-0,045	-0,030
2,011	-0,044	-0,031
2,012	-0,044	-0,050
2,013	-0,045	-0,052
2,014	-0,046	-0,052
2,015	-0,047	-0,063
2,016	-0,049	-0,049
2,017	-0,051	-0,035
2,018	-0,053	-0,049
2,019	-0,055	-0,048
2,02	-0,056	-0,043
2,021	-0,058	-0,060
2,022	-0,059	-0,060
2,023	-0,060	-0,079
2,024	-0,062	-0,092
2,025	-0,062	-0,066
2,026	-0,063	-0,061
2,027	-0,064	-0,072
2,028	-0,065	-0,066
2,029	-0,066	-0,051
2,03	-0,067	-0,034
2,031	-0,068	-0,044
2,032	-0,070	-0,067
2,033	-0,071	-0,069
2,034	-0,071	-0,078
2,035	-0,072	-0,094
2,036	-0,072	-0,092
2,037	-0,072	-0,092
2,038	-0,071	-0,084
2,039	-0,070	-0,052
2,04	-0,068	-0,055
2,041	-0,065	-0,058
2,042	-0,062	-0,048
2,043	-0,059	-0,057
2,044	-0,056	-0,059
2,045	-0,052	-0,063
2,046	-0,049	-0,058
2,047	-0,047	-0,037
2,048	-0,045	-0,033
2,049	-0,044	-0,045
2,05	-0,044	-0,053
2,051	-0,045	-0,056
2,052	-0,047	-0,049
2,053	-0,050	-0,048
2,054	-0,053	-0,050
2,055	-0,056	-0,050
2,056	-0,060	-0,062
2,057	-0,064	-0,067
2,058	-0,067	-0,067
2,059	-0,069	-0,066
2,06	-0,071	-0,069
2,061	-0,072	-0,072
2,062	-0,072	-0,064
2,063	-0,071	-0,065
2,064	-0,069	-0,066
2,065	-0,066	-0,068
2,066	-0,063	-0,068
2,067	-0,060	-0,063
2,068	-0,056	-0,075
2,069	-0,053	-0,071
2,07	-0,051	-0,047
2,071	-0,049	-0,046
2,072	-0,048	-0,052
2,073	-0,048	-0,044
2,074	-0,050	-0,029
2,075	-0,052	-0,032
2,076	-0,054	-0,056
2,077	-0,057	-0,064
2,078	-0,061	-0,068
2,079	-0,064	-0,063
2,08	-0,067	-0,062
2,081	-0,069	-0,067
2,082	-0,070	-0,063
2,083	-0,071	-0,077
2,084	-0,070	-0,084
2,085	-0,068	-0,071
2,086	-0,065	-0,062
2,087	-0,062	-0,063
2,088	-0,057	-0,066
2,089	-0,053	-0,061
2,09	-0,048	-0,051
2,091	-0,044	-0,041
2,092	-0,040	-0,047
2,093	-0,037	-0,039
2,094	-0,035	-0,015
2,095	-0,034	-0,015
2,096	-0,034	-0,022
2,097	-0,034	-0,025
2,098	-0,036	-0,033
2,099	-0,038	-0,042
2,1	-0,041	-0,036
2,101	-0,044	-0,053
2,102	-0,047	-0,069
2,103	-0,050	-0,062
2,104	-0,052	-0,065
2,105	-0,054	-0,064
2,106	-0,056	-0,071
2,107	-0,057	-0,058
2,108	-0,057	-0,035
2,109	-0,057	-0,036
2,11	-0,056	-0,044
2,111	-0,056	-0,043
2,112	-0,055	-0,050
2,113	-0,054	-0,068
2,114	-0,054	-0,060
2,115	-0,054	-0,056
2,116	-0,054	-0,064
2,117	-0,055	-0,050
2,118	-0,056	-0,040
2,119	-0,057	-0,050
2,12	-0,059	-0,046
2,121	-0,061	-0,058
2,122	-0,063	-0,086
2,123	-0,065	-0,083
2,124	-0,066	-0,075
2,125	-0,067	-0,070
2,126	-0,068	-0,078
2,127	-0,068	-0,088
2,128	-0,067	-0,068
2,129	-0,066	-0,053
2,13	-0,064	-0,049
2,131	-0,062	-0,043
2,132	-0,060	-0,045
2,133	-0,057	-0,042
2,134	-0,054	-0,031
2,135	-0,051	-0,043
2,136	-0,049	-0,071
2,137	-0,046	-0,061
2,138	-0,044	-0,045
2,139	-0,043	-0,059
2,14	-0,042	-0,068
2,141	-0,041	-0,050
2,142	-0,041	-0,040
2,143	-0,040	-0,037
2,144	-0,040	-0,026
2,145	-0,041	-0,045
2,146	-0,041	-0,052
2,147	-0,041	-0,042
2,148	-0,041	-0,041
2,149	-0,041	-0,031
2,15	-0,040	-0,031
2,151	-0,039	-0,024
2,152	-0,038	-0,018
2,153	-0,037	-0,020
2,154	-0,036	-0,019
2,155	-0,035	-0,040
2,156	-0,034	-0,052
2,157	-0,033	-0,048
2,158	-0,033	-0,055
2,159	-0,033	-0,065
2,16	-0,033	-0,055
2,161	-0,034	-0,039
2,162	-0,035	-0,028
2,163	-0,037	-0,019
2,164	-0,039	-0,023
2,165	-0,041	-0,022
2,166	-0,044	-0,024
2,167	-0,047	-0,049
2,168	-0,049	-0,062
2,169	-0,051	-0,055
2,17	-0,053	-0,048
2,171	-0,054	-0,044
2,172	-0,055	-0,053
2,173	-0,055	-0,060
2,174	-0,054	-0,063
2,175	-0,053	-0,067
2,176	-0,051	-0,056
2,177	-0,049	-0,045
2,178	-0,047	-0,042
2,179	-0,044	-0,041
2,18	-0,041	-0,055
2,181	-0,039	-0,038
2,182	-0,037	-0,030
2,183	-0,035	-0,043
2,184	-0,034	-0,033
2,185	-0,033	-0,040
2,186	-0,033	-0,031
2,187	-0,033	-0,015
2,188	-0,034	-0,029
2,189	-0,035	-0,037
2,19	-0,035	-0,041
2,191	-0,035	-0,035
2,192	-0,035	-0,027
2,193	-0,034	-0,029
2,194	-0,033	-0,030
2,195	-0,031	-0,030
2,196	-0,029	-0,029
2,197	-0,025	-0,026
2,198	-0,022	-0,037
2,199	-0,018	-0,034
2,2	-0,014	-0,010
2,201	-0,010	-0,009
2,202	-0,007	-0,022
2,203	-0,005	-0,022
2,204	-0,003	-0,007
2,205	-0,003	0,011
2,206	-0,003	0,005
2,207	-0,005	0,015
2,208	-0,008	0,020
2,209	-0,012	-0,003
2,21	-0,017	-0,021
2,211	-0,022	-0,025
2,212	-0,027	-0,022
2,213	-0,032	-0,041
2,214	-0,036	-0,056
2,215	-0,040	-0,058
2,216	-0,042	-0,051
2,217	-0,044	-0,033
2,218	-0,044	-0,040
2,219	-0,043	-0,049
2,22	-0,040	-0,045
2,221	-0,037	-0,048
2,222	-0,032	-0,038
2,223	-0,027	-0,015
2,224	-0,021	-0,002
2,225	-0,016	-0,004
2,226	-0,010	0,002
2,227	-0,005	0,000
2,228	0,000	-0,005
2,229	0,005	0,001
2,23	0,009	0,015
2,231	0,012	0,017
2,232	0,015	0,007
2,233	0,018	0,006
2,234	0,020	0,004
2,235	0,023	0,005
2,236	0,025	0,012
2,237	0,028	0,030
2,238	0,031	0,040
2,239	0,034	0,039
2,24	0,037	0,056
2,241	0,040	0,068
2,242	0,043	0,053
2,243	0,046	0,041
2,244	0,048	0,035
2,245	0,050	0,037
2,246	0,050	0,052
2,247	0,049	0,050
2,248	0,047	0,036
2,249	0,044	0,031
2,25	0,039	0,031
2,251	0,033	0,037
2,252	0,027	0,041
2,253	0,019	0,031
2,254	0,011	0,034
2,255	0,003	0,019
2,256	-0,005	-0,022
2,257	-0,013	-0,035
2,258	-0,020	-0,036
2,259	-0,027	-0,035
2,26	-0,032	-0,029
2,261	-0,037	-0,043
2,262	-0,040	-0,040
2,263	-0,043	-0,027
2,264	-0,044	-0,040
2,265	-0,045	-0,041
2,266	-0,045	-0,033
2,267	-0,045	-0,035
2,268	-0,045	-0,038
2,269	-0,044	-0,052
2,27	-0,043	-0,062
2,271	-0,043	-0,060
2,272	-0,042	-0,061
2,273	-0,042	-0,042
2,274	-0,041	-0,031
2,275	-0,041	-0,033
2,276	-0,041	-0,027
2,277	-0,040	-0,036
2,278	-0,040	-0,042
2,279	-0,040	-0,038
2,28	-0,039	-0,036
2,281	-0,039	-0,037
2,282	-0,039	-0,041
2,283	-0,040	-0,042
2,284	-0,040	-0,037
2,285	-0,042	-0,042
2,286	-0,043	-0,048
2,287	-0,046	-0,051
2,288	-0,049	-0,065
2,289	-0,052	-0,062
2,29	-0,056	-0,065
2,291	-0,060	-0,056
2,292	-0,064	-0,039
2,293	-0,068	-0,064
2,294	-0,070	-0,064
2,295	-0,072	-0,054
2,296	-0,073	-0,068
2,297	-0,072	-0,079
2,298	-0,070	-0,079
2,299	-0,066	-0,069
2,3	-0,061	-0,070
2,301	-0,054	-0,062
2,302	-0,047	-0,043
2,303	-0,039	-0,036
2,304	-0,030	-0,032
2,305	-0,021	-0,024
2,306	-0,014	-0,018
2,307	-0,007	-0,012
2,308	-0,001	-0,006
2,309	0,003	0,002
2,31	0,005	0,009
2,311	0,006	0,024
2,312	0,005	0,021
2,313	0,002	0,008
2,314	-0,001	-0,003
2,315	-0,004	-0,008
2,316	-0,008	-0,021
2,317	-0,010	-0,025
2,318	-0,011	-0,003
2,319	-0,010	-0,008
2,32	-0,006	0,001
2,321	0,000	0,012
2,322	0,010	0,018
2,323	0,024	0,013
2,324	0,042	0,008
2,325	0,063	0,052
2,326	0,087	0,090
2,327	0,113	0,130
2,328	0,142	0,156
2,329	0,172	0,165
2,33	0,203	0,208
2,331	0,234	0,218
2,332	0,264	0,241
2,333	0,292	0,299
2,334	0,318	0,348
2,335	0,340	0,375
2,336	0,360	0,383
2,337	0,376	0,397
2,338	0,387	0,371
2,339	0,394	0,349
2,34	0,397	0,359
2,341	0,396	0,371
2,342	0,392	0,373
2,343	0,383	0,389
2,344	0,370	0,395
2,345	0,355	0,367
2,346	0,337	0,340
2,347	0,317	0,324
2,348	0,295	0,317
2,349	0,271	0,295
2,35	0,247	0,257
2,351	0,222	0,205
2,352	0,196	0,176
2,353	0,171	0,164
2,354	0,146	0,132
2,355	0,122	0,110
2,356	0,099	0,102
2,357	0,077	0,084
2,358	0,057	0,068
2,359	0,038	0,058
2,36	0,021	0,028
2,361	0,006	0,004
2,362	-0,008	-0,021
2,363	-0,019	-0,048
2,364	-0,029	-0,035
2,365	-0,037	-0,040
2,366	-0,043	-0,052
2,367	-0,048	-0,034
2,368	-0,052	-0,035
2,369	-0,055	-0,050
2,37	-0,056	-0,048
2,371	-0,057	-0,052
2,372	-0,057	-0,063
2,373	-0,056	-0,060
2,374	-0,055	-0,043
2,375	-0,054	-0,042
2,376	-0,053	-0,062
2,377	-0,052	-0,063
2,378	-0,050	-0,060
2,379	-0,049	-0,057
2,38	-0,048	-0,047
2,381	-0,047	-0,047
2,382	-0,046	-0,049
2,383	-0,046	-0,046
2,384	-0,046	-0,047
2,385	-0,046	-0,057
2,386	-0,046	-0,047
2,387	-0,046	-0,041
2,388	-0,047	-0,032
2,389	-0,047	-0,034
2,39	-0,047	-0,056
2,391	-0,048	-0,050
2,392	-0,048	-0,031
2,393	-0,048	-0,037
2,394	-0,048	-0,053
2,395	-0,047	-0,051
2,396	-0,047	-0,046
2,397	-0,046	-0,045
2,398	-0,045	-0,050
2,399	-0,044	-0,051
2,4	-0,043	-0,052
2,401	-0,043	-0,064
2,402	-0,042	-0,065
2,403	-0,042	-0,050
2,404	-0,042	-0,040
2,405	-0,042	-0,035
2,406	-0,043	-0,029
2,407	-0,044	-0,013
2,408	-0,045	-0,007
2,409	-0,047	-0,031
2,41	-0,050	-0,054
2,411	-0,052	-0,059
2,412	-0,055	-0,063
2,413	-0,057	-0,060
2,414	-0,059	-0,072
2,415	-0,061	-0,100
2,416	-0,062	-0,089
2,417	-0,063	-0,055
2,418	-0,063	-0,058
2,419	-0,063	-0,073
2,42	-0,061	-0,056
2,421	-0,060	-0,027
2,422	-0,057	-0,031
2,423	-0,055	-0,051
2,424	-0,052	-0,063
2,425	-0,048	-0,060
2,426	-0,045	-0,034
2,427	-0,042	-0,032
2,428	-0,039	-0,044
2,429	-0,036	-0,035
2,43	-0,033	-0,030
2,431	-0,031	-0,043
2,432	-0,029	-0,051
2,433	-0,028	-0,038
2,434	-0,027	-0,030
2,435	-0,026	-0,028
2,436	-0,025	-0,019
2,437	-0,025	-0,010
2,438	-0,024	-0,012
2,439	-0,024	-0,015
2,44	-0,023	-0,026
2,441	-0,023	-0,034
2,442	-0,023	-0,015
2,443	-0,023	-0,013
2,444	-0,022	-0,031
2,445	-0,022	-0,042
2,446	-0,022	-0,030
2,447	-0,022	-0,015
2,448	-0,022	-0,022
2,449	-0,022	-0,023
2,45	-0,023	-0,015
2,451	-0,023	-0,015
2,452	-0,024	-0,014
2,453	-0,024	-0,017
2,454	-0,025	-0,028
2,455	-0,025	-0,037
2,456	-0,025	-0,047
2,457	-0,025	-0,045
2,458	-0,025	-0,023
2,459	-0,024	-0,007
2,46	-0,023	-0,005
2,461	-0,022	-0,009
2,462	-0,020	-0,021
2,463	-0,018	-0,022
2,464	-0,016	-0,022
2,465	-0,013	-0,018
2,466	-0,011	-0,007
2,467	-0,008	-0,011
2,468	-0,005	-0,012
2,469	-0,002	-0,008
2,47	0,000	-0,002
2,471	0,003	0,008
2,472	0,006	0,012
2,473	0,008	0,008
2,474	0,010	0,010
2,475	0,012	0,010
2,476	0,014	0,014
2,477	0,016	0,024
2,478	0,017	0,021
2,479	0,019	0,025
2,48	0,020	0,026
2,481	0,020	0,017
2,482	0,021	0,012
2,483	0,022	0,011
2,484	0,022	0,006
2,485	0,022	0,019
2,486	0,022	0,025
2,487	0,022	0,019
2,488	0,022	0,025
2,489	0,021	0,023
2,49	0,021	0,022
2,491	0,021	0,030
2,492	0,021	0,041
2,493	0,022	0,043
2,494	0,022	0,030
2,495	0,023	0,017
2,496	0,025	0,006
2,497	0,026	0,005
2,498	0,029	0,016
2,499	0,031	0,019
2,5	0,034	0,026
2,501	0,038	0,050
2,502	0,041	0,061
2,503	0,045	0,061
2,504	0,049	0,037
2,505	0,053	0,024
2,506	0,058	0,060
2,507	0,062	0,072
2,508	0,066	0,080
2,509	0,069	0,082
2,51	0,073	0,082
2,511	0,076	0,090
2,512	0,079	0,081
2,513	0,082	0,076
2,514	0,085	0,073
2,515	0,087	0,091
2,516	0,089	0,080
2,517	0,092	0,043
2,518	0,094	0,067
2,519	0,096	0,106
2,52	0,098	0,117
2,521	0,100	0,121
2,522	0,102	0,123
2,523	0,105	0,119
2,524	0,108	0,106
2,525	0,111	0,112
2,526	0,114	0,115
2,527	0,118	0,099
2,528	0,122	0,109
2,529	0,126	0,130
2,53	0,131	0,130
2,531	0,135	0,140
2,532	0,140	0,151
2,533	0,145	0,142
2,534	0,151	0,154
2,535	0,156	0,167
2,536	0,161	0,161
2,537	0,166	0,161
2,538	0,171	0,162
2,539	0,176	0,153
2,54	0,180	0,154
2,541	0,185	0,176
2,542	0,188	0,198
2,543	0,192	0,212
2,544	0,195	0,222
2,545	0,197	0,212
2,546	0,199	0,202
2,547	0,201	0,211
2,548	0,203	0,215
2,549	0,204	0,198
2,55	0,204	0,194
2,551	0,205	0,201
2,552	0,206	0,191
2,553	0,206	0,183
2,554	0,207	0,182
2,555	0,208	0,197
2,556	0,209	0,223
2,557	0,210	0,225
2,558	0,212	0,233
2,559	0,214	0,232
2,56	0,217	0,218
2,561	0,220	0,208
2,562	0,223	0,207
2,563	0,227	0,223
2,564	0,231	0,235
2,565	0,235	0,248
2,566	0,238	0,252
2,567	0,242	0,250
2,568	0,245	0,244
2,569	0,248	0,241
2,57	0,250	0,250
2,571	0,251	0,254
2,572	0,251	0,241
2,573	0,249	0,228
2,574	0,247	0,233
2,575	0,243	0,241
2,576	0,239	0,239
2,577	0,233	0,230
2,578	0,225	0,223
2,579	0,217	0,225
2,58	0,208	0,227
2,581	0,198	0,201
2,582	0,188	0,192
2,583	0,178	0,189
2,584	0,167	0,176
2,585	0,157	0,169
2,586	0,147	0,154
2,587	0,137	0,133
2,588	0,127	0,118
2,589	0,118	0,109
2,59	0,110	0,094
2,591	0,102	0,089
2,592	0,094	0,088
2,593	0,087	0,068
2,594	0,080	0,060
2,595	0,073	0,056
2,596	0,066	0,073
2,597	0,060	0,095
2,598	0,053	0,082
2,599	0,046	0,069
2,6	0,040	0,053
2,601	0,033	0,040
2,602	0,026	0,032
2,603	0,019	0,008
2,604	0,013	0,000
2,605	0,006	0,005
2,606	-0,001	-0,002
2,607	-0,007	-0,029
2,608	-0,014	-0,045
2,609	-0,020	-0,031
2,61	-0,026	-0,015
2,611	-0,031	-0,015
2,612	-0,037	-0,032
2,613	-0,042	-0,048
2,614	-0,046	-0,048
2,615	-0,051	-0,055
2,616	-0,054	-0,058
2,617	-0,058	-0,047
2,618	-0,061	-0,052
2,619	-0,064	-0,047
2,62	-0,067	-0,050
2,621	-0,069	-0,064
2,622	-0,071	-0,058
2,623	-0,072	-0,068
2,624	-0,073	-0,076
2,625	-0,074	-0,092
2,626	-0,075	-0,103
2,627	-0,075	-0,086
2,628	-0,076	-0,088
2,629	-0,076	-0,095
2,63	-0,076	-0,096
2,631	-0,077	-0,087
2,632	-0,077	-0,057
2,633	-0,078	-0,045
2,634	-0,079	-0,061
2,635	-0,080	-0,066
2,636	-0,081	-0,063
2,637	-0,082	-0,072
2,638	-0,083	-0,075
2,639	-0,084	-0,082
2,64	-0,085	-0,094
2,641	-0,086	-0,102
2,642	-0,086	-0,115
2,643	-0,087	-0,108
2,644	-0,087	-0,096
2,645	-0,087	-0,086
2,646	-0,087	-0,083
2,647	-0,087	-0,078
2,648	-0,087	-0,074
2,649	-0,087	-0,084
2,65	-0,088	-0,092
2,651	-0,088	-0,097
2,652	-0,089	-0,084
2,653	-0,090	-0,071
2,654	-0,092	-0,081
2,655	-0,094	-0,100
2,656	-0,096	-0,107
2,657	-0,098	-0,099
2,658	-0,100	-0,105
2,659	-0,102	-0,105
2,66	-0,103	-0,099
2,661	-0,104	-0,107
2,662	-0,104	-0,100
2,663	-0,104	-0,090
2,664	-0,103	-0,099
2,665	-0,101	-0,096
2,666	-0,099	-0,103
2,667	-0,096	-0,115
2,668	-0,093	-0,105
2,669	-0,089	-0,102
2,67	-0,086	-0,100
2,671	-0,084	-0,084
2,672	-0,081	-0,066
2,673	-0,080	-0,059
2,674	-0,079	-0,055
2,675	-0,079	-0,064
2,676	-0,080	-0,083
2,677	-0,082	-0,095
2,678	-0,084	-0,099
2,679	-0,086	-0,101
2,68	-0,089	-0,093
2,681	-0,092	-0,069
2,682	-0,094	-0,087
2,683	-0,096	-0,106
2,684	-0,097	-0,094
2,685	-0,097	-0,099
2,686	-0,096	-0,096
2,687	-0,094	-0,092
2,688	-0,091	-0,091
2,689	-0,088	-0,098
2,69	-0,084	-0,112
2,691	-0,080	-0,096
2,692	-0,076	-0,057
2,693	-0,072	-0,043
2,694	-0,068	-0,053
2,695	-0,066	-0,057
2,696	-0,064	-0,070
2,697	-0,063	-0,072
2,698	-0,064	-0,064
2,699	-0,065	-0,068
2,7	-0,068	-0,067
2,701	-0,071	-0,063
2,702	-0,075	-0,075
2,703	-0,079	-0,087
2,704	-0,083	-0,097
2,705	-0,087	-0,090
2,706	-0,091	-0,087
2,707	-0,094	-0,102
2,708	-0,097	-0,094
2,709	-0,099	-0,094
2,71	-0,100	-0,105
2,711	-0,100	-0,106
2,712	-0,100	-0,096
2,713	-0,098	-0,084
2,714	-0,097	-0,084
2,715	-0,095	-0,090
2,716	-0,093	-0,092
2,717	-0,090	-0,094
2,718	-0,088	-0,089
2,719	-0,086	-0,092
2,72	-0,084	-0,097
2,721	-0,082	-0,091
2,722	-0,081	-0,076
2,723	-0,080	-0,073
2,724	-0,078	-0,087
2,725	-0,077	-0,083
2,726	-0,076	-0,073
2,727	-0,074	-0,068
2,728	-0,073	-0,060
2,729	-0,071	-0,057
2,73	-0,070	-0,074
2,731	-0,068	-0,082
2,732	-0,066	-0,069
2,733	-0,064	-0,063
2,734	-0,062	-0,070
2,735	-0,060	-0,083
2,736	-0,059	-0,070
2,737	-0,058	-0,042
2,738	-0,057	-0,040
2,739	-0,057	-0,046
2,74	-0,057	-0,036
2,741	-0,057	-0,041
2,742	-0,058	-0,054
2,743	-0,059	-0,067
2,744	-0,061	-0,083
2,745	-0,062	-0,077
2,746	-0,064	-0,074
2,747	-0,066	-0,075
2,748	-0,067	-0,077
2,749	-0,068	-0,078
2,75	-0,070	-0,064
2,751	-0,070	-0,068
2,752	-0,071	-0,068
2,753	-0,071	-0,069
2,754	-0,071	-0,066
2,755	-0,071	-0,051
2,756	-0,070	-0,040
2,757	-0,070	-0,044
2,758	-0,069	-0,061
2,759	-0,069	-0,082
2,76	-0,068	-0,095
2,761	-0,068	-0,094
2,762	-0,068	-0,080
2,763	-0,068	-0,065
2,764	-0,068	-0,076
2,765	-0,068	-0,091
2,766	-0,068	-0,072
2,767	-0,069	-0,047
2,768	-0,069	-0,059
2,769	-0,070	-0,071
2,77	-0,070	-0,055
2,771	-0,070	-0,046
2,772	-0,070	-0,073
2,773	-0,070	-0,090
2,774	-0,070	-0,066
2,775	-0,069	-0,055
2,776	-0,068	-0,063
2,777	-0,067	-0,068
2,778	-0,066	-0,073
2,779	-0,064	-0,075
2,78	-0,063	-0,069
2,781	-0,061	-0,070
2,782	-0,059	-0,065
2,783	-0,058	-0,051
2,784	-0,057	-0,050
2,785	-0,056	-0,059
2,786	-0,055	-0,064
2,787	-0,055	-0,058
2,788	-0,055	-0,052
2,789	-0,055	-0,053
2,79	-0,055	-0,048
2,791	-0,056	-0,051
2,792	-0,057	-0,060
2,793	-0,058	-0,050
2,794	-0,058	-0,037
2,795	-0,059	-0,030
2,796	-0,060	-0,046
2,797	-0,060	-0,071
2,798	-0,061	-0,094
2,799	-0,061	-0,108
2,8	-0,060	-0,092
2,801	-0,060	-0,064
2,802	-0,059	-0,041
2,803	-0,059	-0,047
2,804	-0,058	-0,043
2,805	-0,057	-0,030
2,806	-0,057	-0,047
2,807	-0,057	-0,060
2,808	-0,057	-0,058
2,809	-0,057	-0,052
2,81	-0,058	-0,056
2,811	-0,059	-0,069
2,812	-0,060	-0,065
2,813	-0,061	-0,067
2,814	-0,063	-0,082
2,815	-0,064	-0,071
2,816	-0,066	-0,051
2,817	-0,067	-0,055
2,818	-0,068	-0,066
2,819	-0,069	-0,079
2,82	-0,070	-0,086
2,821	-0,070	-0,075
2,822	-0,070	-0,057
2,823	-0,070	-0,050
2,824	-0,070	-0,052
2,825	-0,069	-0,058
2,826	-0,069	-0,077
2,827	-0,069	-0,088
2,828	-0,068	-0,086
2,829	-0,068	-0,078
2,83	-0,067	-0,065
2,831	-0,067	-0,062
2,832	-0,067	-0,065
2,833	-0,067	-0,068
2,834	-0,067	-0,065
2,835	-0,066	-0,067
2,836	-0,065	-0,066
2,837	-0,065	-0,055
2,838	-0,064	-0,051
2,839	-0,062	-0,051
2,84	-0,061	-0,055
2,841	-0,059	-0,059
2,842	-0,057	-0,067
2,843	-0,055	-0,064
2,844	-0,053	-0,067
2,845	-0,052	-0,065
2,846	-0,050	-0,057
2,847	-0,050	-0,056
2,848	-0,049	-0,042
2,849	-0,050	-0,038
2,85	-0,051	-0,042
2,851	-0,052	-0,047
2,852	-0,054	-0,052
2,853	-0,056	-0,057
2,854	-0,058	-0,051
2,855	-0,061	-0,049
2,856	-0,063	-0,071
2,857	-0,065	-0,070
2,858	-0,067	-0,066
2,859	-0,068	-0,071
2,86	-0,068	-0,069
2,861	-0,068	-0,080
2,862	-0,068	-0,075
2,863	-0,067	-0,074
2,864	-0,066	-0,075
2,865	-0,064	-0,048
2,866	-0,063	-0,043
2,867	-0,061	-0,051
2,868	-0,060	-0,063
2,869	-0,060	-0,064
2,87	-0,060	-0,056
2,871	-0,060	-0,072
2,872	-0,061	-0,065
2,873	-0,062	-0,049
2,874	-0,063	-0,080
2,875	-0,065	-0,089
2,876	-0,066	-0,060
2,877	-0,067	-0,056
2,878	-0,068	-0,052
2,879	-0,068	-0,056
2,88	-0,067	-0,065
2,881	-0,066	-0,063
2,882	-0,064	-0,063
2,883	-0,062	-0,053
2,884	-0,060	-0,060
2,885	-0,057	-0,072
2,886	-0,054	-0,070
2,887	-0,052	-0,068
2,888	-0,050	-0,063
2,889	-0,049	-0,059
2,89	-0,048	-0,047
2,891	-0,049	-0,034
2,892	-0,050	-0,036
2,893	-0,052	-0,038
2,894	-0,055	-0,043
2,895	-0,058	-0,057
2,896	-0,061	-0,057
2,897	-0,065	-0,055
2,898	-0,068	-0,063
2,899	-0,071	-0,079
2,9	-0,073	-0,091
2,901	-0,074	-0,084
2,902	-0,075	-0,075
2,903	-0,074	-0,074
2,904	-0,073	-0,087
2,905	-0,070	-0,075
2,906	-0,067	-0,066
2,907	-0,064	-0,057
2,908	-0,060	-0,044
2,909	-0,056	-0,052
2,91	-0,053	-0,070
2,911	-0,050	-0,082
2,912	-0,047	-0,049
2,913	-0,045	-0,017
2,914	-0,044	-0,021
2,915	-0,044	-0,026
2,916	-0,044	-0,035
2,917	-0,045	-0,043
2,918	-0,046	-0,050
2,919	-0,048	-0,057
2,92	-0,050	-0,052
2,921	-0,052	-0,058
2,922	-0,054	-0,064
2,923	-0,056	-0,067
2,924	-0,058	-0,075
2,925	-0,059	-0,068
2,926	-0,060	-0,065
2,927	-0,060	-0,072
2,928	-0,060	-0,058
2,929	-0,060	-0,040
2,93	-0,059	-0,049
2,931	-0,058	-0,053
2,932	-0,057	-0,043
2,933	-0,056	-0,044
2,934	-0,055	-0,042
2,935	-0,054	-0,043
2,936	-0,053	-0,049
2,937	-0,052	-0,051
2,938	-0,051	-0,057
2,939	-0,050	-0,064
2,94	-0,049	-0,066
2,941	-0,049	-0,067
2,942	-0,048	-0,069
2,943	-0,048	-0,065
2,944	-0,048	-0,074
2,945	-0,048	-0,046
2,946	-0,048	-0,015
2,947	-0,049	-0,035
2,948	-0,049	-0,040
2,949	-0,050	-0,034
2,95	-0,052	-0,032
2,951	-0,053	-0,030
2,952	-0,055	-0,052
2,953	-0,056	-0,063
2,954	-0,058	-0,060
2,955	-0,059	-0,070
2,956	-0,060	-0,057
2,957	-0,060	-0,071
2,958	-0,060	-0,087
2,959	-0,059	-0,079
2,96	-0,058	-0,072
2,961	-0,056	-0,048
2,962	-0,053	-0,052
2,963	-0,050	-0,065
2,964	-0,047	-0,043
2,965	-0,043	-0,021
2,966	-0,039	-0,018
2,967	-0,036	-0,020
2,968	-0,033	-0,023
2,969	-0,030	-0,030
2,97	-0,027	-0,020
2,971	-0,026	-0,012
2,972	-0,025	-0,038
2,973	-0,024	-0,045
2,974	-0,024	-0,036
2,975	-0,025	-0,036
2,976	-0,026	-0,032
2,977	-0,028	-0,030
2,978	-0,029	-0,040
2,979	-0,031	-0,031
2,98	-0,033	-0,015
2,981	-0,035	-0,030
2,982	-0,036	-0,034
2,983	-0,038	-0,030
2,984	-0,039	-0,034
2,985	-0,040	-0,035
2,986	-0,040	-0,046
2,987	-0,041	-0,056
2,988	-0,041	-0,051
2,989	-0,041	-0,042
2,99	-0,040	-0,027
2,991	-0,040	-0,031
2,992	-0,039	-0,041
2,993	-0,038	-0,037
2,994	-0,037	-0,046
2,995	-0,035	-0,043
2,996	-0,033	-0,009
2,997	-0,031	-0,003
2,998	-0,028	-0,038
2,999	-0,025	-0,045
3	-0,022	-0,037
3,001	-0,019	-0,023
3,002	-0,015	-0,030
3,003	-0,011	-0,033
3,004	-0,007	-0,001
3,005	-0,003	0,013
3,006	0,001	0,020
3,007	0,004	0,024
3,008	0,008	0,020
3,009	0,011	0,024
3,01	0,014	0,009
3,011	0,017	-0,012
3,012	0,020	0,005
3,013	0,023	0,019
3,014	0,025	0,020
3,015	0,028	0,030
3,016	0,030	0,040
3,017	0,032	0,033
3,018	0,033	0,035
3,019	0,034	0,049
3,02	0,035	0,049
3,021	0,035	0,039
3,022	0,034	0,024
3,023	0,033	0,024
3,024	0,030	0,032
3,025	0,027	0,008
3,026	0,023	-0,014
3,027	0,017	0,011
3,028	0,011	0,024
3,029	0,004	0,019
3,03	-0,003	0,006
3,031	-0,011	0,000
3,032	-0,018	0,002
3,033	-0,026	-0,012
3,034	-0,033	-0,035
3,035	-0,039	-0,055
3,036	-0,045	-0,042
3,037	-0,049	-0,042
3,038	-0,053	-0,060
3,039	-0,055	-0,070
3,04	-0,057	-0,078
3,041	-0,058	-0,058
3,042	-0,058	-0,046
3,043	-0,057	-0,056
3,044	-0,056	-0,058
3,045	-0,055	-0,057
3,046	-0,054	-0,064
3,047	-0,053	-0,066
3,048	-0,052	-0,058
3,049	-0,051	-0,050
3,05	-0,050	-0,034
3,051	-0,049	-0,021
3,052	-0,049	-0,023
3,053	-0,049	-0,041
3,054	-0,048	-0,051
3,055	-0,048	-0,045
3,056	-0,047	-0,061
3,057	-0,047	-0,075
3,058	-0,046	-0,060
3,059	-0,045	-0,039
3,06	-0,045	-0,033
3,061	-0,044	-0,045
3,062	-0,045	-0,053
3,063	-0,045	-0,053
3,064	-0,046	-0,055
3,065	-0,048	-0,058
3,066	-0,050	-0,047
3,067	-0,053	-0,050
3,068	-0,056	-0,058
3,069	-0,059	-0,049
3,07	-0,062	-0,049
3,071	-0,065	-0,050
3,072	-0,067	-0,052
3,073	-0,068	-0,051
3,074	-0,068	-0,060
3,075	-0,066	-0,074
3,076	-0,063	-0,067
3,077	-0,059	-0,079
3,078	-0,053	-0,066
3,079	-0,047	-0,037
3,08	-0,040	-0,048
3,081	-0,032	-0,060
3,082	-0,025	-0,053
3,083	-0,018	-0,028
3,084	-0,012	0,001
3,085	-0,008	0,005
3,086	-0,005	-0,008
3,087	-0,004	0,014
3,088	-0,005	0,034
3,089	-0,007	0,006
3,09	-0,010	-0,018
3,091	-0,013	-0,010
3,092	-0,017	-0,021
3,093	-0,019	-0,033
3,094	-0,020	-0,008
3,095	-0,018	-0,003
3,096	-0,014	-0,015
3,097	-0,007	-0,021
3,098	0,005	-0,015
3,099	0,021	-0,003
3,1	0,041	0,018
3,101	0,065	0,065
3,102	0,092	0,112
3,103	0,122	0,133
3,104	0,154	0,141
3,105	0,187	0,174
3,106	0,220	0,220
3,107	0,253	0,256
3,108	0,283	0,296
3,109	0,311	0,346
3,11	0,336	0,369
3,111	0,356	0,377
3,112	0,373	0,391
3,113	0,384	0,377
3,114	0,390	0,360
3,115	0,392	0,356
3,116	0,390	0,351
3,117	0,383	0,355
3,118	0,372	0,366
3,119	0,358	0,359
3,12	0,341	0,347
3,121	0,322	0,334
3,122	0,301	0,311
3,123	0,279	0,298
3,124	0,255	0,298
3,125	0,231	0,256
3,126	0,207	0,189
3,127	0,183	0,171
3,128	0,158	0,156
3,129	0,135	0,120
3,13	0,111	0,097
3,131	0,089	0,074
3,132	0,068	0,057
3,133	0,048	0,051
3,134	0,029	0,043
3,135	0,012	0,035
3,136	-0,003	0,019
3,137	-0,017	-0,018
3,138	-0,028	-0,040
3,139	-0,038	-0,049
3,14	-0,045	-0,062
3,141	-0,051	-0,064
3,142	-0,055	-0,068
3,143	-0,057	-0,060
3,144	-0,058	-0,049
3,145	-0,058	-0,053
3,146	-0,057	-0,046
3,147	-0,056	-0,046
3,148	-0,055	-0,048
3,149	-0,053	-0,039
3,15	-0,052	-0,041
3,151	-0,051	-0,050
3,152	-0,050	-0,056
3,153	-0,049	-0,052
3,154	-0,049	-0,050
3,155	-0,048	-0,063
3,156	-0,048	-0,066
3,157	-0,048	-0,049
3,158	-0,047	-0,050
3,159	-0,047	-0,058
3,16	-0,046	-0,046
3,161	-0,045	-0,032
3,162	-0,044	-0,030
3,163	-0,043	-0,050
3,164	-0,042	-0,060
3,165	-0,041	-0,040
3,166	-0,041	-0,020
3,167	-0,041	-0,030
3,168	-0,041	-0,037
3,169	-0,042	-0,025
3,17	-0,044	-0,033
3,171	-0,047	-0,054
3,172	-0,050	-0,073
3,173	-0,054	-0,072
3,174	-0,057	-0,049
3,175	-0,061	-0,047
3,176	-0,065	-0,076
3,177	-0,068	-0,096
3,178	-0,070	-0,081
3,179	-0,072	-0,065
3,18	-0,073	-0,063
3,181	-0,072	-0,065
3,182	-0,071	-0,072
3,183	-0,069	-0,069
3,184	-0,066	-0,053
3,185	-0,062	-0,048
3,186	-0,057	-0,054
3,187	-0,053	-0,043
3,188	-0,049	-0,049
3,189	-0,045	-0,061
3,19	-0,041	-0,052
3,191	-0,038	-0,051
3,192	-0,036	-0,033
3,193	-0,035	-0,028
3,194	-0,035	-0,032
3,195	-0,036	-0,030
3,196	-0,037	-0,038
3,197	-0,039	-0,040
3,198	-0,041	-0,047
3,199	-0,044	-0,055
3,2	-0,046	-0,051
3,201	-0,048	-0,052
3,202	-0,050	-0,057
3,203	-0,051	-0,045
3,204	-0,051	-0,036
3,205	-0,051	-0,038
3,206	-0,051	-0,029
3,207	-0,049	-0,039
3,208	-0,047	-0,046
3,209	-0,045	-0,052
3,21	-0,042	-0,069
3,211	-0,040	-0,059
3,212	-0,037	-0,042
3,213	-0,035	-0,033
3,214	-0,032	-0,030
3,215	-0,030	-0,039
3,216	-0,029	-0,034
3,217	-0,027	-0,011
3,218	-0,026	-0,018
3,219	-0,026	-0,023
3,22	-0,025	-0,008
3,221	-0,025	-0,020
3,222	-0,025	-0,036
3,223	-0,024	-0,033
3,224	-0,024	-0,029
3,225	-0,024	-0,026
3,226	-0,024	-0,017
3,227	-0,023	-0,027
3,228	-0,023	-0,029
3,229	-0,022	-0,015
3,23	-0,022	-0,013
3,231	-0,021	-0,021
3,232	-0,021	-0,033
3,233	-0,021	-0,035
3,234	-0,021	-0,019
3,235	-0,021	-0,013
3,236	-0,022	-0,019
3,237	-0,022	-0,017
3,238	-0,023	-0,028
3,239	-0,023	-0,037
3,24	-0,024	-0,022
3,241	-0,024	-0,010
3,242	-0,024	-0,013
3,243	-0,024	-0,014
3,244	-0,024	-0,019
3,245	-0,024	-0,034
3,246	-0,023	-0,038
3,247	-0,022	-0,027
3,248	-0,021	-0,013
3,249	-0,020	-0,016
3,25	-0,018	-0,034
3,251	-0,016	-0,031
3,252	-0,015	-0,009
3,253	-0,013	-0,006
3,254	-0,011	-0,013
3,255	-0,010	-0,003
3,256	-0,008	0,002
3,257	-0,006	0,003
3,258	-0,004	-0,000
3,259	-0,002	-0,015
3,26	-0,000	-0,021
3,261	0,002	-0,006
3,262	0,004	0,014
3,263	0,007	0,028
3,264	0,009	0,027
3,265	0,013	0,021
3,266	0,016	0,022
3,267	0,019	0,007
3,268	0,023	-0,003
3,269	0,027	0,009
3,27	0,031	0,016
3,271	0,034	0,018
3,272	0,038	0,040
3,273	0,042	0,056
3,274	0,045	0,070
3,275	0,048	0,072
3,276	0,051	0,056
3,277	0,054	0,056
3,278	0,056	0,053
3,279	0,058	0,055
3,28	0,060	0,058
3,281	0,062	0,060
3,282	0,064	0,060
3,283	0,066	0,065
3,284	0,067	0,065
3,285	0,069	0,055
3,286	0,071	0,061
3,287	0,073	0,066
3,288	0,075	0,080
3,289	0,077	0,090
3,29	0,080	0,084
3,291	0,082	0,090
3,292	0,085	0,092
3,293	0,088	0,075
3,294	0,091	0,084
3,295	0,094	0,098
3,296	0,098	0,094
3,297	0,101	0,107
3,298	0,105	0,118
3,299	0,109	0,117
3,3	0,113	0,124
3,301	0,117	0,124
3,302	0,121	0,104
3,303	0,126	0,095
3,304	0,130	0,113
3,305	0,134	0,131
3,306	0,138	0,140
3,307	0,142	0,154
3,308	0,146	0,163
3,309	0,149	0,161
3,31	0,152	0,161
3,311	0,155	0,156
3,312	0,158	0,148
3,313	0,160	0,156
3,314	0,162	0,156
3,315	0,164	0,145
3,316	0,167	0,161
3,317	0,169	0,177
3,318	0,171	0,195
3,319	0,174	0,196
3,32	0,178	0,168
3,321	0,181	0,163
3,322	0,186	0,186
3,323	0,190	0,188
3,324	0,195	0,191
3,325	0,200	0,212
3,326	0,206	0,212
3,327	0,211	0,212
3,328	0,216	0,207
3,329	0,221	0,201
3,33	0,225	0,215
3,331	0,229	0,231
3,332	0,232	0,241
3,333	0,234	0,242
3,334	0,235	0,242
3,335	0,235	0,245
3,336	0,235	0,244
3,337	0,234	0,229
3,338	0,232	0,220
3,339	0,230	0,223
3,34	0,227	0,237
3,341	0,225	0,236
3,342	0,223	0,210
3,343	0,221	0,220
3,344	0,219	0,226
3,345	0,218	0,204
3,346	0,217	0,211
3,347	0,216	0,228
3,348	0,215	0,218
3,349	0,215	0,201
3,35	0,214	0,198
3,351	0,213	0,213
3,352	0,211	0,229
3,353	0,209	0,219
3,354	0,206	0,205
3,355	0,202	0,203
3,356	0,197	0,203
3,357	0,191	0,201
3,358	0,184	0,181
3,359	0,176	0,167
3,36	0,168	0,161
3,361	0,159	0,154
3,362	0,149	0,151
3,363	0,139	0,142
3,364	0,129	0,133
3,365	0,118	0,120
3,366	0,108	0,095
3,367	0,098	0,084
3,368	0,088	0,088
3,369	0,078	0,079
3,37	0,069	0,078
3,371	0,061	0,071
3,372	0,053	0,052
3,373	0,045	0,060
3,374	0,038	0,055
3,375	0,031	0,018
3,376	0,025	-0,004
3,377	0,019	0,003
3,378	0,014	0,012
3,379	0,009	0,018
3,38	0,004	0,023
3,381	-0,000	0,012
3,382	-0,004	0,006
3,383	-0,009	0,001
3,384	-0,013	-0,012
3,385	-0,017	-0,025
3,386	-0,021	-0,035
3,387	-0,025	-0,044
3,388	-0,030	-0,058
3,389	-0,034	-0,045
3,39	-0,039	-0,025
3,391	-0,044	-0,020
3,392	-0,049	-0,032
3,393	-0,054	-0,050
3,394	-0,059	-0,054
3,395	-0,064	-0,064
3,396	-0,069	-0,072
3,397	-0,073	-0,084
3,398	-0,076	-0,087
3,399	-0,079	-0,092
3,4	-0,081	-0,082
3,401	-0,083	-0,047
3,402	-0,083	-0,056
3,403	-0,084	-0,080
3,404	-0,083	-0,077
3,405	-0,082	-0,084
3,406	-0,081	-0,118
3,407	-0,080	-0,122
3,408	-0,079	-0,083
3,409	-0,079	-0,074
3,41	-0,079	-0,089
3,411	-0,079	-0,079
3,412	-0,080	-0,075
3,413	-0,083	-0,073
3,414	-0,085	-0,066
3,415	-0,089	-0,069
3,416	-0,093	-0,067
3,417	-0,097	-0,082
3,418	-0,101	-0,104
3,419	-0,106	-0,116
3,42	-0,110	-0,113
3,421	-0,113	-0,121
3,422	-0,116	-0,141
3,423	-0,118	-0,127
3,424	-0,119	-0,129
3,425	-0,119	-0,136
3,426	-0,119	-0,120
3,427	-0,117	-0,121
3,428	-0,115	-0,113
3,429	-0,113	-0,102
3,43	-0,110	-0,105
3,431	-0,106	-0,097
3,432	-0,103	-0,088
3,433	-0,100	-0,087
3,434	-0,097	-0,085
3,435	-0,094	-0,084
3,436	-0,092	-0,089
3,437	-0,090	-0,104
3,438	-0,089	-0,104
3,439	-0,087	-0,086
3,44	-0,086	-0,093
3,441	-0,086	-0,104
3,442	-0,085	-0,092
3,443	-0,085	-0,088
3,444	-0,085	-0,091
3,445	-0,085	-0,089
3,446	-0,086	-0,078
3,447	-0,086	-0,075
3,448	-0,087	-0,082
3,449	-0,088	-0,080
3,45	-0,089	-0,080
3,451	-0,090	-0,085
3,452	-0,091	-0,093
3,453	-0,093	-0,103
3,454	-0,095	-0,104
3,455	-0,096	-0,098
3,456	-0,098	-0,092
3,457	-0,099	-0,092
3,458	-0,101	-0,087
3,459	-0,102	-0,092
3,46	-0,102	-0,108
3,461	-0,102	-0,115
3,462	-0,102	-0,118
3,463	-0,101	-0,110
3,464	-0,100	-0,101
3,465	-0,098	-0,092
3,466	-0,096	-0,085
3,467	-0,094	-0,100
3,468	-0,092	-0,113
3,469	-0,090	-0,093
3,47	-0,088	-0,070
3,471	-0,086	-0,079
3,472	-0,085	-0,086
3,473	-0,084	-0,085
3,474	-0,082	-0,081
3,475	-0,082	-0,066
3,476	-0,081	-0,071
3,477	-0,081	-0,084
3,478	-0,080	-0,080
3,479	-0,080	-0,077
3,48	-0,080	-0,079
3,481	-0,080	-0,091
3,482	-0,081	-0,093
3,483	-0,081	-0,079
3,484	-0,082	-0,093
3,485	-0,082	-0,102
3,486	-0,083	-0,090
3,487	-0,084	-0,082
3,488	-0,086	-0,074
3,489	-0,087	-0,079
3,49	-0,089	-0,092
3,491	-0,090	-0,090
3,492	-0,092	-0,088
3,493	-0,093	-0,082
3,494	-0,094	-0,069
3,495	-0,094	-0,076
3,496	-0,094	-0,091
3,497	-0,093	-0,097
3,498	-0,091	-0,099
3,499	-0,089	-0,113
3,5	-0,086	-0,112
3,501	-0,083	-0,083
3,502	-0,079	-0,085
3,503	-0,075	-0,080
3,504	-0,071	-0,056
3,505	-0,068	-0,069
3,506	-0,065	-0,075
3,507	-0,063	-0,065
3,508	-0,062	-0,053
3,509	-0,062	-0,048
3,51	-0,063	-0,060
3,511	-0,065	-0,058
3,512	-0,068	-0,070
3,513	-0,072	-0,085
3,514	-0,076	-0,078
3,515	-0,081	-0,072
3,516	-0,085	-0,070
3,517	-0,089	-0,085
3,518	-0,092	-0,088
3,519	-0,093	-0,087
3,52	-0,094	-0,101
3,521	-0,094	-0,106
3,522	-0,092	-0,109
3,523	-0,089	-0,099
3,524	-0,085	-0,086
3,525	-0,080	-0,090
3,526	-0,075	-0,095
3,527	-0,069	-0,078
3,528	-0,064	-0,045
3,529	-0,060	-0,037
3,53	-0,056	-0,038
3,531	-0,053	-0,036
3,532	-0,051	-0,043
3,533	-0,050	-0,046
3,534	-0,050	-0,055
3,535	-0,052	-0,057
3,536	-0,053	-0,051
3,537	-0,056	-0,057
3,538	-0,058	-0,064
3,539	-0,061	-0,076
3,54	-0,063	-0,075
3,541	-0,065	-0,078
3,542	-0,066	-0,081
3,543	-0,067	-0,059
3,544	-0,067	-0,048
3,545	-0,067	-0,057
3,546	-0,067	-0,069
3,547	-0,066	-0,075
3,548	-0,066	-0,073
3,549	-0,065	-0,064
3,55	-0,065	-0,047
3,551	-0,065	-0,050
3,552	-0,065	-0,065
3,553	-0,066	-0,072
3,554	-0,067	-0,074
3,555	-0,068	-0,063
3,556	-0,069	-0,069
3,557	-0,071	-0,077
3,558	-0,071	-0,059
3,559	-0,072	-0,060
3,56	-0,071	-0,069
3,561	-0,070	-0,080
3,562	-0,068	-0,091
3,563	-0,066	-0,090
3,564	-0,063	-0,074
3,565	-0,060	-0,062
3,566	-0,056	-0,062
3,567	-0,053	-0,051
3,568	-0,050	-0,030
3,569	-0,048	-0,020
3,57	-0,046	-0,027
3,571	-0,045	-0,041
3,572	-0,046	-0,054
3,573	-0,047	-0,047
3,574	-0,049	-0,044
3,575	-0,053	-0,049
3,576	-0,056	-0,056
3,577	-0,061	-0,071
3,578	-0,065	-0,083
3,579	-0,070	-0,088
3,58	-0,074	-0,078
3,581	-0,077	-0,074
3,582	-0,080	-0,088
3,583	-0,082	-0,070
3,584	-0,083	-0,062
3,585	-0,083	-0,092
3,586	-0,082	-0,105
3,587	-0,081	-0,084
3,588	-0,079	-0,074
3,589	-0,076	-0,068
3,59	-0,073	-0,056
3,591	-0,070	-0,056
3,592	-0,068	-0,043
3,593	-0,065	-0,049
3,594	-0,063	-0,079
3,595	-0,062	-0,090
3,596	-0,061	-0,073
3,597	-0,060	-0,063
3,598	-0,059	-0,062
3,599	-0,059	-0,060
3,6	-0,059	-0,074
3,601	-0,060	-0,076
3,602	-0,060	-0,050
3,603	-0,060	-0,048
3,604	-0,060	-0,062
3,605	-0,060	-0,057
3,606	-0,060	-0,050
3,607	-0,060	-0,043
3,608	-0,060	-0,049
3,609	-0,061	-0,056
3,61	-0,061	-0,070
3,611	-0,061	-0,080
3,612	-0,062	-0,060
3,613	-0,063	-0,050
3,614	-0,064	-0,073
3,615	-0,065	-0,080
3,616	-0,065	-0,067
3,617	-0,066	-0,068
3,618	-0,067	-0,068
3,619	-0,068	-0,065
3,62	-0,068	-0,061
3,621	-0,068	-0,059
3,622	-0,068	-0,065
3,623	-0,067	-0,059
3,624	-0,067	-0,059
3,625	-0,066	-0,075
3,626	-0,065	-0,084
3,627	-0,064	-0,072
3,628	-0,063	-0,068
3,629	-0,062	-0,071
3,63	-0,062	-0,067
3,631	-0,062	-0,056
3,632	-0,061	-0,045
3,633	-0,062	-0,048
3,634	-0,062	-0,053
3,635	-0,062	-0,047
3,636	-0,063	-0,055
3,637	-0,063	-0,069
3,638	-0,063	-0,072
3,639	-0,063	-0,072
3,64	-0,063	-0,071
3,641	-0,062	-0,084
3,642	-0,061	-0,079
3,643	-0,060	-0,053
3,644	-0,058	-0,042
3,645	-0,057	-0,050
3,646	-0,055	-0,052
3,647	-0,054	-0,058
3,648	-0,053	-0,061
3,649	-0,052	-0,045
3,65	-0,052	-0,044
3,651	-0,052	-0,043
3,652	-0,052	-0,040
3,653	-0,052	-0,044
3,654	-0,053	-0,045
3,655	-0,054	-0,063
3,656	-0,055	-0,082
3,657	-0,056	-0,077
3,658	-0,057	-0,068
3,659	-0,058	-0,055
3,66	-0,058	-0,042
3,661	-0,058	-0,051
3,662	-0,058	-0,057
3,663	-0,057	-0,044
3,664	-0,056	-0,050
3,665	-0,056	-0,057
3,666	-0,055	-0,060
3,667	-0,054	-0,059
3,668	-0,054	-0,058
3,669	-0,054	-0,068
3,67	-0,055	-0,074
3,671	-0,055	-0,057
3,672	-0,056	-0,052
3,673	-0,058	-0,051
3,674	-0,059	-0,034
3,675	-0,061	-0,034
3,676	-0,062	-0,046
3,677	-0,063	-0,066
3,678	-0,064	-0,076
3,679	-0,064	-0,086
3,68	-0,064	-0,078
3,681	-0,063	-0,067
3,682	-0,061	-0,075
3,683	-0,060	-0,066
3,684	-0,058	-0,049
3,685	-0,055	-0,042
3,686	-0,053	-0,049
3,687	-0,051	-0,046
3,688	-0,049	-0,049
3,689	-0,048	-0,053
3,69	-0,048	-0,044
3,691	-0,047	-0,024
3,692	-0,048	-0,042
3,693	-0,049	-0,075
3,694	-0,051	-0,066
3,695	-0,052	-0,058
3,696	-0,054	-0,045
3,697	-0,056	-0,046
3,698	-0,057	-0,049
3,699	-0,059	-0,046
3,7	-0,059	-0,064
3,701	-0,059	-0,067
3,702	-0,059	-0,063
3,703	-0,058	-0,063
3,704	-0,056	-0,064
3,705	-0,054	-0,060
3,706	-0,051	-0,056
3,707	-0,049	-0,050
3,708	-0,046	-0,035
3,709	-0,044	-0,036
3,71	-0,042	-0,051
3,711	-0,041	-0,043
3,712	-0,040	-0,028
3,713	-0,039	-0,029
3,714	-0,039	-0,033
3,715	-0,039	-0,034
3,716	-0,039	-0,041
3,717	-0,039	-0,044
3,718	-0,040	-0,049
3,719	-0,039	-0,049
3,72	-0,039	-0,038
3,721	-0,038	-0,037
3,722	-0,037	-0,033
3,723	-0,035	-0,036
3,724	-0,033	-0,039
3,725	-0,031	-0,040
3,726	-0,029	-0,035
3,727	-0,027	-0,017
3,728	-0,025	-0,021
3,729	-0,023	-0,026
3,73	-0,022	-0,022
3,731	-0,022	-0,018
3,732	-0,022	-0,004
3,733	-0,023	-0,010
3,734	-0,024	-0,023
3,735	-0,026	-0,033
3,736	-0,028	-0,041
3,737	-0,030	-0,040
3,738	-0,032	-0,036
3,739	-0,034	-0,030
3,74	-0,035	-0,031
3,741	-0,035	-0,041
3,742	-0,035	-0,035
3,743	-0,034	-0,035
3,744	-0,032	-0,038
3,745	-0,030	-0,021
3,746	-0,027	-0,029
3,747	-0,024	-0,018
3,748	-0,020	-0,003
3,749	-0,017	-0,017
3,75	-0,014	-0,020
3,751	-0,011	-0,018
3,752	-0,008	-0,028
3,753	-0,006	-0,025
3,754	-0,004	0,006
3,755	-0,002	0,017
3,756	-0,000	0,017
3,757	0,002	0,008
3,758	0,004	0,001
3,759	0,006	0,003
3,76	0,009	0,013
3,761	0,012	0,021
3,762	0,016	0,004
3,763	0,021	0,008
3,764	0,025	0,018
3,765	0,030	0,021
3,766	0,035	0,039
3,767	0,039	0,037
3,768	0,043	0,038
3,769	0,046	0,058
3,77	0,048	0,058
3,771	0,048	0,053
3,772	0,047	0,047
3,773	0,044	0,028
3,774	0,040	0,039
3,775	0,034	0,058
3,776	0,027	0,044
3,777	0,018	0,015
3,778	0,009	-0,002
3,779	-0,000	-0,011
3,78	-0,010	-0,022
3,781	-0,020	-0,031
3,782	-0,029	-0,029
3,783	-0,038	-0,024
3,784	-0,045	-0,046
3,785	-0,052	-0,061
3,786	-0,058	-0,056
3,787	-0,062	-0,061
3,788	-0,066	-0,062
3,789	-0,069	-0,067
3,79	-0,072	-0,068
3,791	-0,074	-0,070
3,792	-0,075	-0,070
3,793	-0,076	-0,065
3,794	-0,077	-0,077
3,795	-0,078	-0,086
3,796	-0,078	-0,092
3,797	-0,078	-0,091
3,798	-0,077	-0,075
3,799	-0,076	-0,071
3,8	-0,074	-0,071
3,801	-0,072	-0,063
3,802	-0,068	-0,058
3,803	-0,064	-0,070
3,804	-0,060	-0,066
3,805	-0,055	-0,051
3,806	-0,049	-0,060
3,807	-0,044	-0,046
3,808	-0,039	-0,033
3,809	-0,034	-0,033
3,81	-0,031	-0,021
3,811	-0,028	-0,030
3,812	-0,027	-0,028
3,813	-0,027	-0,021
3,814	-0,028	-0,031
3,815	-0,030	-0,028
3,816	-0,034	-0,045
3,817	-0,038	-0,053
3,818	-0,042	-0,043
3,819	-0,046	-0,054
3,82	-0,050	-0,054
3,821	-0,053	-0,036
3,822	-0,055	-0,030
3,823	-0,056	-0,045
3,824	-0,055	-0,047
3,825	-0,052	-0,046
3,826	-0,048	-0,055
3,827	-0,043	-0,058
3,828	-0,037	-0,053
3,829	-0,031	-0,035
3,83	-0,025	-0,031
3,831	-0,019	-0,026
3,832	-0,014	-0,015
3,833	-0,010	-0,020
3,834	-0,008	-0,018
3,835	-0,007	-0,003
3,836	-0,007	0,008
3,837	-0,009	0,016
3,838	-0,012	0,009
3,839	-0,015	-0,010
3,84	-0,018	-0,016
3,841	-0,021	-0,024
3,842	-0,022	-0,022
3,843	-0,021	-0,020
3,844	-0,017	-0,029
3,845	-0,011	-0,039
3,846	-0,001	-0,024
3,847	0,012	0,010
3,848	0,029	0,035
3,849	0,049	0,060
3,85	0,072	0,080
3,851	0,097	0,103
3,852	0,123	0,137
3,853	0,152	0,156
3,854	0,180	0,171
3,855	0,208	0,208
3,856	0,235	0,235
3,857	0,260	0,232
3,858	0,284	0,284
3,859	0,305	0,338
3,86	0,323	0,331
3,861	0,338	0,344
3,862	0,350	0,345
3,863	0,360	0,336
3,864	0,366	0,356
3,865	0,369	0,370
3,866	0,370	0,366
3,867	0,369	0,382
3,868	0,364	0,383
3,869	0,357	0,352
3,87	0,348	0,342
3,871	0,336	0,326
3,872	0,322	0,311
3,873	0,305	0,314
3,874	0,286	0,299
3,875	0,264	0,261
3,876	0,241	0,239
3,877	0,215	0,212
3,878	0,188	0,168
3,879	0,160	0,151
3,88	0,131	0,130
3,881	0,103	0,133
3,882	0,074	0,124
3,883	0,047	0,060
3,884	0,023	0,013
3,885	0,000	-0,022
3,886	-0,020	-0,044
3,887	-0,036	-0,054
3,888	-0,049	-0,061
3,889	-0,059	-0,053
3,89	-0,065	-0,063
3,891	-0,069	-0,073
3,892	-0,069	-0,075
3,893	-0,068	-0,068
3,894	-0,064	-0,038
3,895	-0,060	-0,043
3,896	-0,055	-0,060
3,897	-0,051	-0,048
3,898	-0,047	-0,045
3,899	-0,043	-0,049
3,9	-0,041	-0,040
3,901	-0,040	-0,041
3,902	-0,040	-0,041
3,903	-0,041	-0,046
3,904	-0,043	-0,052
3,905	-0,045	-0,042
3,906	-0,048	-0,046
3,907	-0,051	-0,054
3,908	-0,054	-0,060
3,909	-0,056	-0,065
3,91	-0,058	-0,053
3,911	-0,059	-0,043
3,912	-0,059	-0,052
3,913	-0,059	-0,056
3,914	-0,058	-0,065
3,915	-0,056	-0,065
3,916	-0,055	-0,052
3,917	-0,054	-0,055
3,918	-0,053	-0,057
3,919	-0,052	-0,057
3,92	-0,052	-0,051
3,921	-0,053	-0,051
3,922	-0,054	-0,058
3,923	-0,056	-0,050
3,924	-0,058	-0,049
3,925	-0,059	-0,054
3,926	-0,061	-0,055
3,927	-0,063	-0,063
3,928	-0,064	-0,062
3,929	-0,065	-0,062
3,93	-0,065	-0,070
3,931	-0,064	-0,069
3,932	-0,063	-0,069
3,933	-0,061	-0,079
3,934	-0,059	-0,079
3,935	-0,057	-0,067
3,936	-0,055	-0,051
3,937	-0,053	-0,039
3,938	-0,051	-0,040
3,939	-0,050	-0,035
3,94	-0,050	-0,029
3,941	-0,050	-0,036
3,942	-0,050	-0,051
3,943	-0,051	-0,054
3,944	-0,052	-0,052
3,945	-0,053	-0,067
3,946	-0,054	-0,067
3,947	-0,055	-0,057
3,948	-0,056	-0,067
3,949	-0,055	-0,071
3,95	-0,054	-0,058
3,951	-0,053	-0,037
3,952	-0,051	-0,041
3,953	-0,048	-0,052
3,954	-0,045	-0,040
3,955	-0,042	-0,036
3,956	-0,038	-0,038
3,957	-0,036	-0,031
3,958	-0,033	-0,032
3,959	-0,031	-0,043
3,96	-0,030	-0,043
3,961	-0,029	-0,032
3,962	-0,030	-0,012
3,963	-0,030	0,005
3,964	-0,032	-0,008
3,965	-0,034	-0,057
3,966	-0,035	-0,079
3,967	-0,037	-0,048
3,968	-0,039	-0,028
3,969	-0,040	-0,032
3,97	-0,041	-0,050
3,971	-0,041	-0,049
3,972	-0,041	-0,027
3,973	-0,040	-0,028
3,974	-0,039	-0,037
3,975	-0,037	-0,039
3,976	-0,035	-0,046
3,977	-0,033	-0,044
3,978	-0,031	-0,031
3,979	-0,029	-0,024
3,98	-0,027	-0,024
3,981	-0,026	-0,027
3,982	-0,024	-0,023
3,983	-0,023	-0,016
3,984	-0,022	-0,021
3,985	-0,021	-0,022
3,986	-0,019	-0,005
3,987	-0,018	-0,001
3,988	-0,016	-0,001
3,989	-0,013	-0,023
3,99	-0,011	-0,045
3,991	-0,008	-0,026
3,992	-0,004	-0,027
3,993	-0,001	-0,009
3,994	0,003	0,019
3,995	0,006	0,020
3,996	0,009	0,021
3,997	0,011	0,007
3,998	0,013	0,008
3,999	0,014	0,019
4	0,013	0,028
4,001	0,012	0,023
4,002	0,010	0,016
4,003	0,008	0,010
4,004	0,004	-0,007
4,005	0,001	-0,004
4,006	-0,003	-0,004
4,007	-0,006	0,002
4,008	-0,009	0,005
4,009	-0,011	-0,022
4,01	-0,011	-0,038
4,011	-0,011	-0,029
4,012	-0,010	-0,021
4,013	-0,008	-0,008
4,014	-0,004	-0,000
4,015	0,000	0,006
4,016	0,005	0,009
4,017	0,011	0,018
4,018	0,016	0,038
4,019	0,022	0,040
4,02	0,027	0,041
4,021	0,032	0,039
4,022	0,037	0,033
4,023	0,041	0,031
4,024	0,044	0,034
4,025	0,046	0,023
4,026	0,048	0,024
4,027	0,049	0,047
4,028	0,050	0,053
4,029	0,051	0,055
4,03	0,053	0,056
4,031	0,054	0,056
4,032	0,056	0,062
4,033	0,058	0,057
4,034	0,061	0,057
4,035	0,064	0,069
4,036	0,068	0,082
4,037	0,072	0,092
4,038	0,077	0,085
4,039	0,081	0,086
4,04	0,085	0,077
4,041	0,089	0,065
4,042	0,093	0,075
4,043	0,097	0,086
4,044	0,100	0,098
4,045	0,102	0,110
4,046	0,104	0,115
4,047	0,106	0,108
4,048	0,108	0,116
4,049	0,110	0,125
4,05	0,112	0,117
4,051	0,115	0,113
4,052	0,118	0,096
4,053	0,122	0,095
4,054	0,126	0,121
4,055	0,131	0,141
4,056	0,137	0,154
4,057	0,143	0,163
4,058	0,149	0,155
4,059	0,156	0,153
4,06	0,163	0,163
4,061	0,170	0,148
4,062	0,177	0,161
4,063	0,183	0,200
4,064	0,189	0,196
4,065	0,193	0,188
4,066	0,197	0,194
4,067	0,201	0,204
4,068	0,203	0,220
4,069	0,205	0,220
4,07	0,206	0,197
4,071	0,207	0,179
4,072	0,208	0,187
4,073	0,208	0,203
4,074	0,209	0,209
4,075	0,210	0,220
4,076	0,211	0,228
4,077	0,212	0,223
4,078	0,214	0,205
4,079	0,216	0,220
4,08	0,218	0,250
4,081	0,220	0,232
4,082	0,223	0,220
4,083	0,225	0,217
4,084	0,227	0,212
4,085	0,229	0,212
4,086	0,230	0,214
4,087	0,231	0,226
4,088	0,231	0,221
4,089	0,231	0,224
4,09	0,231	0,240
4,091	0,230	0,242
4,092	0,229	0,243
4,093	0,227	0,236
4,094	0,226	0,215
4,095	0,224	0,216
4,096	0,222	0,228
4,097	0,221	0,233
4,098	0,219	0,245
4,099	0,217	0,236
4,1	0,215	0,218
4,101	0,213	0,204
4,102	0,210	0,195
4,103	0,206	0,197
4,104	0,202	0,179
4,105	0,198	0,164
4,106	0,192	0,160
4,107	0,185	0,173
4,108	0,178	0,193
4,109	0,170	0,192
4,11	0,161	0,186
4,111	0,151	0,175
4,112	0,141	0,163
4,113	0,131	0,150
4,114	0,121	0,130
4,115	0,111	0,102
4,116	0,101	0,090
4,117	0,092	0,087
4,118	0,083	0,069
4,119	0,075	0,048
4,12	0,067	0,051
4,121	0,060	0,067
4,122	0,053	0,059
4,123	0,047	0,038
4,124	0,041	0,040
4,125	0,034	0,035
4,126	0,028	0,024
4,127	0,022	0,037
4,128	0,015	0,031
4,129	0,008	0,012
4,13	0,001	-0,000
4,131	-0,007	-0,019
4,132	-0,014	-0,019
4,133	-0,022	-0,000
4,134	-0,029	-0,004
4,135	-0,036	-0,029
4,136	-0,042	-0,063
4,137	-0,048	-0,072
4,138	-0,054	-0,038
4,139	-0,059	-0,041
4,14	-0,063	-0,072
4,141	-0,066	-0,083
4,142	-0,069	-0,091
4,143	-0,072	-0,107
4,144	-0,075	-0,096
4,145	-0,077	-0,054
4,146	-0,080	-0,049
4,147	-0,082	-0,061
4,148	-0,085	-0,080
4,149	-0,087	-0,082
4,15	-0,090	-0,063
4,151	-0,092	-0,092
4,152	-0,095	-0,120
4,153	-0,097	-0,108
4,154	-0,099	-0,095
4,155	-0,101	-0,092
4,156	-0,101	-0,098
4,157	-0,102	-0,101
4,158	-0,101	-0,103
4,159	-0,100	-0,113
4,16	-0,098	-0,119
4,161	-0,097	-0,109
4,162	-0,094	-0,090
4,163	-0,092	-0,080
4,164	-0,090	-0,092
4,165	-0,089	-0,097
4,166	-0,088	-0,085
4,167	-0,088	-0,082
4,168	-0,089	-0,075
4,169	-0,091	-0,075
4,17	-0,094	-0,091
4,171	-0,097	-0,103
4,172	-0,101	-0,099
4,173	-0,105	-0,108
4,174	-0,109	-0,113
4,175	-0,113	-0,105
4,176	-0,116	-0,115
4,177	-0,118	-0,118
4,178	-0,120	-0,113
4,179	-0,121	-0,126
4,18	-0,120	-0,154
4,181	-0,118	-0,142
4,182	-0,116	-0,112
4,183	-0,113	-0,105
4,184	-0,109	-0,107
4,185	-0,105	-0,109
4,186	-0,101	-0,081
4,187	-0,098	-0,070
4,188	-0,095	-0,092
4,189	-0,093	-0,102
4,19	-0,091	-0,102
4,191	-0,090	-0,087
4,192	-0,091	-0,080
4,193	-0,091	-0,090
4,194	-0,093	-0,087
4,195	-0,094	-0,092
4,196	-0,096	-0,104
4,197	-0,097	-0,111
4,198	-0,098	-0,111
4,199	-0,098	-0,102
4,2	-0,098	-0,098
4,201	-0,097	-0,103
4,202	-0,096	-0,109
4,203	-0,094	-0,096
4,204	-0,092	-0,088
4,205	-0,090	-0,077
4,206	-0,088	-0,063
4,207	-0,087	-0,084
4,208	-0,086	-0,091
4,209	-0,086	-0,069
4,21	-0,086	-0,081
4,211	-0,087	-0,089
4,212	-0,089	-0,087
4,213	-0,092	-0,108
4,214	-0,095	-0,110
4,215	-0,099	-0,110
4,216	-0,102	-0,114
4,217	-0,106	-0,104
4,218	-0,108	-0,105
4,219	-0,110	-0,113
4,22	-0,112	-0,104
4,221	-0,112	-0,091
4,222	-0,111	-0,095
4,223	-0,110	-0,114
4,224	-0,108	-0,123
4,225	-0,105	-0,113
4,226	-0,102	-0,109
4,227	-0,099	-0,095
4,228	-0,096	-0,087
4,229	-0,093	-0,092
4,23	-0,091	-0,087
4,231	-0,089	-0,097
4,232	-0,088	-0,099
4,233	-0,087	-0,093
4,234	-0,087	-0,082
4,235	-0,087	-0,081
4,236	-0,087	-0,081
4,237	-0,087	-0,076
4,238	-0,087	-0,083
4,239	-0,087	-0,083
4,24	-0,086	-0,093
4,241	-0,086	-0,101
4,242	-0,085	-0,088
4,243	-0,083	-0,082
4,244	-0,082	-0,091
4,245	-0,080	-0,086
4,246	-0,078	-0,075
4,247	-0,077	-0,065
4,248	-0,076	-0,071
4,249	-0,076	-0,084
4,25	-0,076	-0,080
4,251	-0,077	-0,078
4,252	-0,079	-0,069
4,253	-0,080	-0,062
4,254	-0,083	-0,081
4,255	-0,085	-0,087
4,256	-0,087	-0,094
4,257	-0,089	-0,106
4,258	-0,090	-0,100
4,259	-0,091	-0,095
4,26	-0,091	-0,078
4,261	-0,090	-0,078
4,262	-0,088	-0,092
4,263	-0,085	-0,087
4,264	-0,082	-0,074
4,265	-0,079	-0,072
4,266	-0,075	-0,076
4,267	-0,072	-0,081
4,268	-0,069	-0,089
4,269	-0,066	-0,078
4,27	-0,065	-0,060
4,271	-0,064	-0,058
4,272	-0,063	-0,061
4,273	-0,064	-0,076
4,274	-0,066	-0,077
4,275	-0,068	-0,045
4,276	-0,070	-0,029
4,277	-0,073	-0,041
4,278	-0,076	-0,077
4,279	-0,078	-0,096
4,28	-0,080	-0,080
4,281	-0,081	-0,096
4,282	-0,081	-0,121
4,283	-0,081	-0,102
4,284	-0,079	-0,093
4,285	-0,077	-0,085
4,286	-0,075	-0,068
4,287	-0,071	-0,059
4,288	-0,068	-0,045
4,289	-0,065	-0,045
4,29	-0,061	-0,057
4,291	-0,059	-0,056
4,292	-0,057	-0,048
4,293	-0,055	-0,055
4,294	-0,054	-0,057
4,295	-0,054	-0,047
4,296	-0,055	-0,051
4,297	-0,057	-0,066
4,298	-0,058	-0,073
4,299	-0,061	-0,069
4,3	-0,063	-0,061
4,301	-0,065	-0,072
4,302	-0,068	-0,079
4,303	-0,070	-0,067
4,304	-0,072	-0,068
4,305	-0,073	-0,087
4,306	-0,074	-0,084
4,307	-0,074	-0,079
4,308	-0,074	-0,075
4,309	-0,074	-0,050
4,31	-0,073	-0,047
4,311	-0,073	-0,053
4,312	-0,072	-0,053
4,313	-0,071	-0,062
4,314	-0,070	-0,068
4,315	-0,069	-0,083
4,316	-0,068	-0,107
4,317	-0,067	-0,096
4,318	-0,067	-0,059
4,319	-0,066	-0,059
4,32	-0,066	-0,078
4,321	-0,065	-0,072
4,322	-0,065	-0,068
4,323	-0,064	-0,055
4,324	-0,064	-0,059
4,325	-0,063	-0,060
4,326	-0,063	-0,047
4,327	-0,062	-0,056
4,328	-0,061	-0,055
4,329	-0,060	-0,053
4,33	-0,059	-0,067
4,331	-0,059	-0,062
4,332	-0,058	-0,051
4,333	-0,057	-0,053
4,334	-0,056	-0,062
4,335	-0,056	-0,075
4,336	-0,055	-0,065
4,337	-0,055	-0,044
4,338	-0,055	-0,047
4,339	-0,055	-0,058
4,34	-0,056	-0,054
4,341	-0,057	-0,055
4,342	-0,058	-0,064
4,343	-0,059	-0,065
4,344	-0,060	-0,069
4,345	-0,062	-0,069
4,346	-0,064	-0,067
4,347	-0,066	-0,066
4,348	-0,067	-0,049
4,349	-0,069	-0,049
4,35	-0,071	-0,075
4,351	-0,072	-0,084
4,352	-0,074	-0,084
4,353	-0,074	-0,058
4,354	-0,075	-0,041
4,355	-0,075	-0,061
4,356	-0,074	-0,075
4,357	-0,073	-0,088
4,358	-0,072	-0,086
4,359	-0,071	-0,085
4,36	-0,069	-0,091
4,361	-0,067	-0,093
4,362	-0,065	-0,078
4,363	-0,064	-0,071
4,364	-0,063	-0,073
4,365	-0,062	-0,040
4,366	-0,062	-0,028
4,367	-0,062	-0,050
4,368	-0,063	-0,056
4,369	-0,064	-0,045
4,37	-0,066	-0,040
4,371	-0,068	-0,051
4,372	-0,070	-0,059
4,373	-0,072	-0,084
4,374	-0,074	-0,100
4,375	-0,075	-0,097
4,376	-0,077	-0,101
4,377	-0,077	-0,103
4,378	-0,078	-0,105
4,379	-0,077	-0,104
4,38	-0,076	-0,086
4,381	-0,075	-0,055
4,382	-0,073	-0,028
4,383	-0,071	-0,040
4,384	-0,068	-0,057
4,385	-0,066	-0,047
4,386	-0,063	-0,043
4,387	-0,060	-0,047
4,388	-0,058	-0,051
4,389	-0,056	-0,061
4,39	-0,054	-0,067
4,391	-0,053	-0,070
4,392	-0,052	-0,094
4,393	-0,051	-0,099
4,394	-0,050	-0,071
4,395	-0,049	-0,052
4,396	-0,049	-0,033
4,397	-0,048	-0,024
4,398	-0,048	-0,021
4,399	-0,047	-0,019
4,4	-0,046	-0,034
4,401	-0,044	-0,048
4,402	-0,043	-0,037
4,403	-0,042	-0,037
4,404	-0,040	-0,061
4,405	-0,039	-0,051
4,406	-0,038	-0,048
4,407	-0,037	-0,050
4,408	-0,036	-0,029
4,409	-0,036	-0,027
4,41	-0,035	-0,026
4,411	-0,036	-0,029
4,412	-0,036	-0,031
4,413	-0,037	-0,032
4,414	-0,037	-0,056
4,415	-0,038	-0,059
4,416	-0,040	-0,059
4,417	-0,041	-0,056
4,418	-0,042	-0,036
4,419	-0,042	-0,024
4,42	-0,043	-0,018
4,421	-0,043	-0,023
4,422	-0,043	-0,027
4,423	-0,042	-0,029
4,424	-0,041	-0,031
4,425	-0,040	-0,057
4,426	-0,039	-0,070
4,427	-0,037	-0,051
4,428	-0,035	-0,050
4,429	-0,033	-0,044
4,43	-0,031	-0,040
4,431	-0,029	-0,035
4,432	-0,026	-0,023
4,433	-0,024	-0,004
4,434	-0,022	0,010
4,435	-0,021	0,001
4,436	-0,019	-0,026
4,437	-0,018	-0,031
4,438	-0,017	-0,009
4,439	-0,016	-0,010
4,44	-0,015	-0,022
4,441	-0,015	-0,023
4,442	-0,014	-0,022
4,443	-0,014	-0,027
4,444	-0,013	-0,026
4,445	-0,012	-0,019
4,446	-0,011	-0,011
4,447	-0,009	0,001
4,448	-0,008	-0,002
4,449	-0,005	-0,001
4,45	-0,003	0,004
4,451	0,000	0,006
4,452	0,003	0,013
4,453	0,006	0,013
4,454	0,010	0,004
4,455	0,013	0,011
4,456	0,015	0,022
4,457	0,017	0,018
4,458	0,018	0,015
4,459	0,019	-0,005
4,46	0,018	-0,005
4,461	0,016	0,024
4,462	0,013	0,012
4,463	0,009	0,006
4,464	0,003	0,020
4,465	-0,003	0,005
4,466	-0,010	-0,017
4,467	-0,018	-0,018
4,468	-0,025	-0,019
4,469	-0,033	-0,028
4,47	-0,041	-0,044
4,471	-0,048	-0,055
4,472	-0,054	-0,052
4,473	-0,059	-0,059
4,474	-0,063	-0,052
4,475	-0,066	-0,050
4,476	-0,068	-0,067
4,477	-0,069	-0,072
4,478	-0,068	-0,070
4,479	-0,067	-0,067
4,48	-0,066	-0,075
4,481	-0,064	-0,096
4,482	-0,061	-0,094
4,483	-0,059	-0,067
4,484	-0,056	-0,044
4,485	-0,054	-0,038
4,486	-0,052	-0,033
4,487	-0,051	-0,035
4,488	-0,050	-0,036
4,489	-0,049	-0,034
4,49	-0,048	-0,037
4,491	-0,048	-0,043
4,492	-0,048	-0,056
4,493	-0,048	-0,070
4,494	-0,048	-0,066
4,495	-0,049	-0,048
4,496	-0,049	-0,044
4,497	-0,049	-0,064
4,498	-0,050	-0,080
4,499	-0,051	-0,063
4,5	-0,052	-0,042
4,501	-0,054	-0,034
4,502	-0,055	-0,042
4,503	-0,057	-0,066
4,504	-0,060	-0,059
4,505	-0,062	-0,042
4,506	-0,065	-0,050
4,507	-0,067	-0,054
4,508	-0,069	-0,072
4,509	-0,070	-0,085
4,51	-0,071	-0,072
4,511	-0,071	-0,063
4,512	-0,070	-0,081
4,513	-0,068	-0,085
4,514	-0,066	-0,066
4,515	-0,062	-0,065
4,516	-0,058	-0,070
4,517	-0,054	-0,061
4,518	-0,049	-0,060
4,519	-0,044	-0,046
4,52	-0,040	-0,018
4,521	-0,036	-0,018
4,522	-0,034	-0,027
4,523	-0,032	-0,027
4,524	-0,031	-0,022
4,525	-0,031	-0,030
4,526	-0,031	-0,024
4,527	-0,033	-0,028
4,528	-0,034	-0,042
4,529	-0,034	-0,045
4,53	-0,034	-0,068
4,531	-0,033	-0,059
4,532	-0,029	-0,028
4,533	-0,022	-0,012
4,534	-0,013	0,001
4,535	-0,000	0,020
4,536	0,016	0,037
4,537	0,035	0,037
4,538	0,058	0,053
4,539	0,084	0,088
4,54	0,112	0,119
4,541	0,142	0,135
4,542	0,173	0,150
4,543	0,205	0,191
4,544	0,236	0,219
4,545	0,266	0,242
4,546	0,294	0,292
4,547	0,320	0,346
4,548	0,342	0,369
4,549	0,360	0,376
4,55	0,374	0,383
4,551	0,384	0,398
4,552	0,389	0,407
4,553	0,390	0,391
4,554	0,387	0,370
4,555	0,379	0,347
4,556	0,369	0,357
4,557	0,355	0,337
4,558	0,338	0,302
4,559	0,319	0,305
4,56	0,298	0,316
4,561	0,276	0,314
4,562	0,252	0,298
4,563	0,228	0,248
4,564	0,203	0,192
4,565	0,178	0,176
4,566	0,153	0,140
4,567	0,128	0,089
4,568	0,105	0,076
4,569	0,082	0,077
4,57	0,060	0,079
4,571	0,040	0,081
4,572	0,022	0,055
4,573	0,005	0,025
4,574	-0,010	-0,018
4,575	-0,022	-0,059
4,576	-0,032	-0,072
4,577	-0,041	-0,058
4,578	-0,047	-0,047
4,579	-0,051	-0,049
4,58	-0,054	-0,040
4,581	-0,055	-0,043
4,582	-0,055	-0,044
4,583	-0,054	-0,042
4,584	-0,052	-0,054
4,585	-0,051	-0,058
4,586	-0,049	-0,050
4,587	-0,048	-0,046
4,588	-0,047	-0,038
4,589	-0,046	-0,035
4,59	-0,047	-0,047
4,591	-0,048	-0,054
4,592	-0,049	-0,064
4,593	-0,051	-0,073
4,594	-0,053	-0,068
4,595	-0,056	-0,060
4,596	-0,058	-0,038
4,597	-0,060	-0,045
4,598	-0,061	-0,070
4,599	-0,062	-0,042
4,6	-0,062	-0,039
4,601	-0,061	-0,067
4,602	-0,060	-0,073
4,603	-0,059	-0,062
4,604	-0,057	-0,057
4,605	-0,055	-0,072
4,606	-0,053	-0,072
4,607	-0,052	-0,056
4,608	-0,050	-0,033
4,609	-0,050	-0,027
4,61	-0,050	-0,046
4,611	-0,050	-0,063
4,612	-0,052	-0,052
4,613	-0,054	-0,044
4,614	-0,056	-0,050
4,615	-0,059	-0,049
4,616	-0,062	-0,062
4,617	-0,066	-0,082
4,618	-0,069	-0,084
4,619	-0,071	-0,090
4,62	-0,074	-0,090
4,621	-0,075	-0,064
4,622	-0,076	-0,055
4,623	-0,076	-0,062
4,624	-0,076	-0,081
4,625	-0,075	-0,088
4,626	-0,074	-0,066
4,627	-0,072	-0,052
4,628	-0,069	-0,049
4,629	-0,067	-0,059
4,63	-0,064	-0,078
4,631	-0,061	-0,087
4,632	-0,059	-0,082
4,633	-0,056	-0,064
4,634	-0,054	-0,050
4,635	-0,052	-0,055
4,636	-0,051	-0,062
4,637	-0,049	-0,039
4,638	-0,048	-0,021
4,639	-0,046	-0,035
4,64	-0,045	-0,045
4,641	-0,044	-0,028
4,642	-0,043	-0,026
4,643	-0,042	-0,049
4,644	-0,040	-0,070
4,645	-0,039	-0,068
4,646	-0,037	-0,043
4,647	-0,036	-0,035
4,648	-0,034	-0,033
4,649	-0,032	-0,027
4,65	-0,031	-0,027
4,651	-0,029	-0,025
4,652	-0,028	-0,021
4,653	-0,027	-0,016
4,654	-0,026	-0,015
4,655	-0,025	-0,021
4,656	-0,024	-0,031
4,657	-0,024	-0,040
4,658	-0,023	-0,030
4,659	-0,023	-0,014
4,66	-0,023	-0,019
4,661	-0,023	-0,026
4,662	-0,024	-0,027
4,663	-0,024	-0,034
4,664	-0,024	-0,030
4,665	-0,025	-0,018
4,666	-0,025	-0,013
4,667	-0,025	-0,019
4,668	-0,026	-0,026
4,669	-0,025	-0,029
4,67	-0,025	-0,030
4,671	-0,024	-0,033
4,672	-0,023	-0,035
4,673	-0,022	-0,019
4,674	-0,020	-0,010
4,675	-0,018	-0,007
4,676	-0,015	-0,011
4,677	-0,012	-0,011
4,678	-0,009	0,004
4,679	-0,005	0,004
4,68	-0,002	0,000
4,681	0,001	-0,014
4,682	0,004	-0,003
4,683	0,007	0,009
4,684	0,009	-0,012
4,685	0,011	-0,006
4,686	0,012	0,001
4,687	0,012	0,011
4,688	0,012	0,033
4,689	0,011	0,018
4,69	0,009	-0,001
4,691	0,007	0,014
4,692	0,005	0,025
4,693	0,003	0,017
4,694	0,001	0,011
4,695	-0,001	0,004
4,696	-0,003	-0,001
4,697	-0,004	-0,007
4,698	-0,005	-0,002
4,699	-0,005	-0,015
4,7	-0,005	-0,042
4,701	-0,004	-0,033
4,702	-0,003	-0,010
4,703	-0,001	0,006
4,704	0,001	0,006
4,705	0,003	0,017
4,706	0,006	0,021
4,707	0,008	0,019
4,708	0,011	0,019
4,709	0,013	0,004
4,71	0,015	0,017
4,711	0,018	0,035
4,712	0,020	0,034
4,713	0,023	0,025
4,714	0,026	0,012
4,715	0,030	0,023
4,716	0,034	0,026
4,717	0,038	0,036
4,718	0,044	0,047
4,719	0,049	0,041
4,72	0,056	0,033
4,721	0,062	0,034
4,722	0,069	0,072
4,723	0,077	0,093
4,724	0,084	0,087
4,725	0,091	0,115
4,726	0,097	0,130
4,727	0,103	0,108
4,728	0,109	0,105
4,729	0,113	0,108
4,73	0,117	0,118
4,731	0,119	0,124
4,732	0,121	0,115
4,733	0,123	0,106
4,734	0,123	0,098
4,735	0,124	0,105
4,736	0,124	0,127
4,737	0,125	0,143
4,738	0,126	0,128
4,739	0,127	0,127
4,74	0,128	0,148
4,741	0,131	0,136
4,742	0,134	0,130
4,743	0,138	0,133
4,744	0,143	0,138
4,745	0,148	0,151
4,746	0,154	0,158
4,747	0,160	0,169
4,748	0,165	0,168
4,749	0,171	0,162
4,75	0,177	0,169
4,751	0,182	0,171
4,752	0,186	0,183
4,753	0,190	0,192
4,754	0,194	0,192
4,755	0,196	0,206
4,756	0,199	0,208
4,757	0,200	0,202
4,758	0,202	0,208
4,759	0,203	0,206
4,76	0,204	0,195
4,761	0,205	0,193
4,762	0,206	0,199
4,763	0,208	0,211
4,764	0,209	0,215
4,765	0,211	0,215
4,766	0,212	0,217
4,767	0,214	0,217
4,768	0,215	0,211
4,769	0,217	0,211
4,77	0,218	0,224
4,771	0,219	0,220
4,772	0,220	0,220
4,773	0,221	0,226
4,774	0,221	0,221
4,775	0,221	0,212
4,776	0,221	0,219
4,777	0,220	0,222
4,778	0,220	0,214
4,779	0,219	0,211
4,78	0,219	0,215
4,781	0,219	0,221
4,782	0,219	0,232
4,783	0,220	0,233
4,784	0,220	0,224
4,785	0,220	0,215
4,786	0,221	0,212
4,787	0,221	0,220
4,788	0,220	0,219
4,789	0,219	0,225
4,79	0,217	0,228
4,791	0,215	0,216
4,792	0,211	0,195
4,793	0,206	0,192
4,794	0,199	0,196
4,795	0,192	0,185
4,796	0,183	0,186
4,797	0,173	0,187
4,798	0,162	0,164
4,799	0,150	0,163
4,8	0,138	0,152
4,801	0,125	0,109
4,802	0,112	0,109
4,803	0,099	0,102
4,804	0,087	0,082
4,805	0,075	0,084
4,806	0,064	0,071
4,807	0,054	0,040
4,808	0,045	0,028
4,809	0,036	0,034
4,81	0,029	0,025
4,811	0,022	0,026
4,812	0,016	0,025
4,813	0,010	0,014
4,814	0,005	0,003
4,815	-0,000	0,001
4,816	-0,005	0,009
4,817	-0,010	0,003
4,818	-0,015	-0,011
4,819	-0,020	-0,025
4,82	-0,026	-0,041
4,821	-0,031	-0,052
4,822	-0,037	-0,040
4,823	-0,042	-0,035
4,824	-0,048	-0,052
4,825	-0,053	-0,052
4,826	-0,058	-0,054
4,827	-0,063	-0,056
4,828	-0,068	-0,056
4,829	-0,072	-0,070
4,83	-0,075	-0,087
4,831	-0,078	-0,092
4,832	-0,081	-0,076
4,833	-0,083	-0,078
4,834	-0,084	-0,084
4,835	-0,085	-0,072
4,836	-0,086	-0,081
4,837	-0,087	-0,094
4,838	-0,088	-0,092
4,839	-0,089	-0,087
4,84	-0,090	-0,094
4,841	-0,091	-0,110
4,842	-0,092	-0,095
4,843	-0,093	-0,083
4,844	-0,095	-0,090
4,845	-0,096	-0,095
4,846	-0,097	-0,096
4,847	-0,099	-0,094
4,848	-0,100	-0,097
4,849	-0,100	-0,105
4,85	-0,101	-0,100
4,851	-0,101	-0,098
4,852	-0,100	-0,119
4,853	-0,099	-0,116
4,854	-0,098	-0,083
4,855	-0,097	-0,067
4,856	-0,095	-0,070
4,857	-0,093	-0,103
4,858	-0,091	-0,126
4,859	-0,090	-0,108
4,86	-0,088	-0,089
4,861	-0,087	-0,073
4,862	-0,087	-0,069
4,863	-0,087	-0,084
4,864	-0,087	-0,087
4,865	-0,088	-0,090
4,866	-0,090	-0,104
4,867	-0,091	-0,113
4,868	-0,094	-0,099
4,869	-0,096	-0,074
4,87	-0,098	-0,080
4,871	-0,100	-0,093
4,872	-0,102	-0,097
4,873	-0,104	-0,108
4,874	-0,105	-0,108
4,875	-0,106	-0,112
4,876	-0,106	-0,125
4,877	-0,106	-0,118
4,878	-0,105	-0,104
4,879	-0,104	-0,094
4,88	-0,103	-0,087
4,881	-0,102	-0,094
4,882	-0,101	-0,103
4,883	-0,100	-0,095
4,884	-0,100	-0,095
4,885	-0,099	-0,115
4,886	-0,100	-0,116
4,887	-0,100	-0,102
4,888	-0,101	-0,096
4,889	-0,102	-0,090
4,89	-0,103	-0,100
4,891	-0,104	-0,119
4,892	-0,105	-0,112
4,893	-0,106	-0,106
4,894	-0,106	-0,104
4,895	-0,106	-0,094
4,896	-0,106	-0,101
4,897	-0,105	-0,097
4,898	-0,103	-0,092
4,899	-0,102	-0,099
4,9	-0,100	-0,098
4,901	-0,097	-0,110
4,902	-0,095	-0,099
4,903	-0,093	-0,098
4,904	-0,092	-0,116
4,905	-0,090	-0,100
4,906	-0,090	-0,098
4,907	-0,089	-0,090
4,908	-0,090	-0,067
4,909	-0,090	-0,075
4,91	-0,091	-0,085
4,911	-0,092	-0,088
4,912	-0,094	-0,086
4,913	-0,095	-0,095
4,914	-0,096	-0,105
4,915	-0,096	-0,100
4,916	-0,097	-0,099
4,917	-0,096	-0,088
4,918	-0,095	-0,097
4,919	-0,094	-0,096
4,92	-0,092	-0,087
4,921	-0,090	-0,094
4,922	-0,088	-0,092
4,923	-0,086	-0,108
4,924	-0,084	-0,094
4,925	-0,083	-0,076
4,926	-0,082	-0,086
4,927	-0,082	-0,070
4,928	-0,082	-0,074
4,929	-0,083	-0,090
4,93	-0,085	-0,081
4,931	-0,087	-0,095
4,932	-0,089	-0,089
4,933	-0,091	-0,065
4,934	-0,093	-0,078
4,935	-0,095	-0,099
4,936	-0,096	-0,091
4,937	-0,096	-0,086
4,938	-0,096	-0,109
4,939	-0,094	-0,106
4,94	-0,092	-0,103
4,941	-0,089	-0,122
4,942	-0,085	-0,109
4,943	-0,081	-0,086
4,944	-0,076	-0,058
4,945	-0,071	-0,038
4,946	-0,067	-0,050
4,947	-0,063	-0,061
4,948	-0,060	-0,066
4,949	-0,057	-0,073
4,95	-0,056	-0,063
4,951	-0,055	-0,035
4,952	-0,055	-0,030
4,953	-0,056	-0,051
4,954	-0,058	-0,062
4,955	-0,060	-0,063
4,956	-0,063	-0,059
4,957	-0,066	-0,072
4,958	-0,068	-0,094
4,959	-0,070	-0,094
4,96	-0,072	-0,083
4,961	-0,073	-0,078
4,962	-0,074	-0,071
4,963	-0,074	-0,066
4,964	-0,074	-0,065
4,965	-0,073	-0,066
4,966	-0,072	-0,070
4,967	-0,071	-0,064
4,968	-0,069	-0,053
4,969	-0,068	-0,055
4,97	-0,067	-0,062
4,971	-0,067	-0,059
4,972	-0,067	-0,060
4,973	-0,067	-0,066
4,974	-0,067	-0,075
4,975	-0,068	-0,091
4,976	-0,069	-0,103
4,977	-0,070	-0,091
4,978	-0,071	-0,084
4,979	-0,072	-0,082
4,98	-0,073	-0,072
4,981	-0,073	-0,063
4,982	-0,074	-0,045
4,983	-0,073	-0,036
4,984	-0,073	-0,051
4,985	-0,072	-0,063
4,986	-0,071	-0,066
4,987	-0,070	-0,076
4,988	-0,069	-0,082
4,989	-0,067	-0,090
4,99	-0,066	-0,090
4,991	-0,065	-0,078
4,992	-0,064	-0,064
4,993	-0,063	-0,056
4,994	-0,063	-0,058
4,995	-0,063	-0,050
4,996	-0,063	-0,061
4,997	-0,063	-0,080
4,998	-0,063	-0,068
4,999	-0,064	-0,053
5	-0,064	-0,053
5,001	-0,065	-0,064
5,002	-0,065	-0,067
5,003	-0,066	-0,049
5,004	-0,066	-0,056
5,005	-0,067	-0,086
5,006	-0,067	-0,075
5,007	-0,067	-0,060
5,008	-0,068	-0,062
5,009	-0,068	-0,069
5,01	-0,068	-0,076
5,011	-0,069	-0,074
5,012	-0,069	-0,080
5,013	-0,069	-0,088
5,014	-0,070	-0,082
5,015	-0,070	-0,058
5,016	-0,070	-0,045
5,017	-0,070	-0,048
5,018	-0,070	-0,062
5,019	-0,070	-0,074
5,02	-0,069	-0,083
5,021	-0,069	-0,062
5,022	-0,069	-0,050
5,023	-0,068	-0,081
5,024	-0,068	-0,080
5,025	-0,068	-0,073
5,026	-0,068	-0,092
5,027	-0,069	-0,082
5,028	-0,069	-0,053
5,029	-0,070	-0,055
5,03	-0,070	-0,065
5,031	-0,071	-0,062
5,032	-0,071	-0,071
5,033	-0,072	-0,086
5,034	-0,072	-0,090
5,035	-0,071	-0,068
5,036	-0,071	-0,053
5,037	-0,069	-0,059
5,038	-0,067	-0,059
5,039	-0,064	-0,055
5,04	-0,061	-0,061
5,041	-0,057	-0,072
5,042	-0,052	-0,063
5,043	-0,048	-0,046
5,044	-0,044	-0,044
5,045	-0,039	-0,055
5,046	-0,035	-0,050
5,047	-0,032	-0,020
5,048	-0,029	-0,011
5,049	-0,027	-0,033
5,05	-0,026	-0,032
5,051	-0,026	-0,029
5,052	-0,027	-0,025
5,053	-0,029	-0,014
5,054	-0,031	-0,024
5,055	-0,033	-0,032
5,056	-0,036	-0,036
5,057	-0,039	-0,041
5,058	-0,042	-0,042
5,059	-0,044	-0,048
5,06	-0,045	-0,052
5,061	-0,046	-0,035
5,062	-0,046	-0,041
5,063	-0,046	-0,062
5,064	-0,044	-0,054
5,065	-0,042	-0,041
5,066	-0,039	-0,035
5,067	-0,036	-0,047
5,068	-0,033	-0,037
5,069	-0,029	-0,011
5,07	-0,026	-0,022
5,071	-0,022	-0,035
5,072	-0,020	-0,024
5,073	-0,017	-0,006
5,074	-0,015	0,001
5,075	-0,014	-0,004
5,076	-0,012	-0,015
5,077	-0,012	-0,003
5,078	-0,011	-0,004
5,079	-0,011	-0,017
5,08	-0,011	-0,008
5,081	-0,010	-0,022
5,082	-0,010	-0,045
5,083	-0,009	-0,036
5,084	-0,008	-0,009
5,085	-0,007	0,003
5,086	-0,006	-0,004
5,087	-0,005	0,002
5,088	-0,003	0,020
5,089	-0,002	0,017
5,09	-0,001	0,007
5,091	-0,000	0,004
5,092	-0,000	-0,004
5,093	-0,000	0,002
5,094	-0,001	-0,007
5,095	-0,002	-0,016
5,096	-0,004	-0,011
5,097	-0,007	-0,018
5,098	-0,010	-0,014
5,099	-0,014	-0,007
5,1	-0,017	-0,010
5,101	-0,022	-0,026
5,102	-0,026	-0,040
5,103	-0,031	-0,032
5,104	-0,035	-0,028
5,105	-0,040	-0,035
5,106	-0,044	-0,041
5,107	-0,048	-0,045
5,108	-0,052	-0,042
5,109	-0,055	-0,047
5,11	-0,059	-0,055
5,111	-0,062	-0,060
5,112	-0,064	-0,077
5,113	-0,067	-0,077
5,114	-0,069	-0,069
5,115	-0,071	-0,068
5,116	-0,072	-0,079
5,117	-0,073	-0,077
5,118	-0,074	-0,069
5,119	-0,074	-0,072
5,12	-0,074	-0,059
5,121	-0,074	-0,070
5,122	-0,073	-0,088
5,123	-0,072	-0,098
5,124	-0,071	-0,094
5,125	-0,069	-0,055
5,126	-0,067	-0,031
5,127	-0,065	-0,048
5,128	-0,063	-0,063
5,129	-0,062	-0,062
5,13	-0,061	-0,073
5,131	-0,060	-0,067
5,132	-0,060	-0,061
5,133	-0,060	-0,064
5,134	-0,061	-0,055
5,135	-0,063	-0,064
5,136	-0,066	-0,074
5,137	-0,069	-0,075
5,138	-0,073	-0,077
5,139	-0,076	-0,069
5,14	-0,080	-0,066
5,141	-0,084	-0,073
5,142	-0,087	-0,080
5,143	-0,090	-0,102
5,144	-0,092	-0,108
5,145	-0,092	-0,104
5,146	-0,092	-0,101
5,147	-0,090	-0,090
5,148	-0,087	-0,077
5,149	-0,083	-0,073
5,15	-0,077	-0,075
5,151	-0,071	-0,072
5,152	-0,064	-0,062
5,153	-0,057	-0,037
5,154	-0,051	-0,044
5,155	-0,044	-0,045
5,156	-0,039	-0,032
5,157	-0,035	-0,055
5,158	-0,032	-0,050
5,159	-0,030	-0,035
5,16	-0,030	-0,036
5,161	-0,031	-0,026
5,162	-0,034	-0,020
5,163	-0,037	-0,032
5,164	-0,040	-0,058
5,165	-0,042	-0,063
5,166	-0,044	-0,047
5,167	-0,045	-0,035
5,168	-0,042	-0,034
5,169	-0,037	-0,034
5,17	-0,029	-0,015
5,171	-0,017	0,003
5,172	-0,001	0,018
5,173	0,018	0,028
5,174	0,042	0,030
5,175	0,069	0,056
5,176	0,098	0,099
5,177	0,130	0,113
5,178	0,163	0,138
5,179	0,196	0,186
5,18	0,230	0,215
5,181	0,261	0,244
5,182	0,291	0,289
5,183	0,317	0,341
5,184	0,340	0,359
5,185	0,358	0,372
5,186	0,372	0,385
5,187	0,381	0,383
5,188	0,385	0,401
5,189	0,385	0,404
5,19	0,379	0,376
5,191	0,370	0,357
5,192	0,357	0,340
5,193	0,341	0,313
5,194	0,322	0,298
5,195	0,301	0,292
5,196	0,279	0,302
5,197	0,255	0,304
5,198	0,231	0,255
5,199	0,206	0,190
5,2	0,181	0,148
5,201	0,156	0,129
5,202	0,131	0,113
5,203	0,107	0,100
5,204	0,084	0,091
5,205	0,061	0,077
5,206	0,040	0,058
5,207	0,020	0,038
5,208	0,001	0,027
5,209	-0,015	0,013
5,21	-0,030	-0,032
5,211	-0,042	-0,062
5,212	-0,052	-0,064
5,213	-0,060	-0,075
5,214	-0,066	-0,086
5,215	-0,069	-0,090
5,216	-0,070	-0,072
5,217	-0,069	-0,064
5,218	-0,067	-0,065
5,219	-0,064	-0,054
5,22	-0,059	-0,048
5,221	-0,055	-0,050
5,222	-0,051	-0,059
5,223	-0,047	-0,058
5,224	-0,044	-0,042
5,225	-0,043	-0,035
5,226	-0,042	-0,034
5,227	-0,043	-0,030
5,228	-0,046	-0,039
5,229	-0,049	-0,041
5,23	-0,053	-0,045
5,231	-0,058	-0,056
5,232	-0,063	-0,071
5,233	-0,068	-0,078
5,234	-0,073	-0,085
5,235	-0,076	-0,099
5,236	-0,079	-0,100
5,237	-0,081	-0,098
5,238	-0,081	-0,077
5,239	-0,080	-0,070
5,24	-0,078	-0,073
5,241	-0,076	-0,061
5,242	-0,073	-0,046
5,243	-0,069	-0,041
5,244	-0,066	-0,055
5,245	-0,063	-0,062
5,246	-0,061	-0,088
5,247	-0,060	-0,080
5,248	-0,060	-0,058
5,249	-0,061	-0,062
5,25	-0,062	-0,055
5,251	-0,065	-0,071
5,252	-0,068	-0,079
5,253	-0,071	-0,080
5,254	-0,075	-0,088
5,255	-0,078	-0,085
5,256	-0,081	-0,070
5,257	-0,083	-0,068
5,258	-0,084	-0,069
5,259	-0,084	-0,068
5,26	-0,083	-0,081
5,261	-0,081	-0,090
5,262	-0,078	-0,085
5,263	-0,074	-0,083
5,264	-0,070	-0,072
5,265	-0,066	-0,061
5,266	-0,062	-0,067
5,267	-0,058	-0,064
5,268	-0,055	-0,051
5,269	-0,052	-0,044
5,27	-0,050	-0,047
5,271	-0,049	-0,056
5,272	-0,048	-0,050
5,273	-0,048	-0,042
5,274	-0,049	-0,049
5,275	-0,050	-0,050
5,276	-0,051	-0,057
5,277	-0,053	-0,046
5,278	-0,054	-0,041
5,279	-0,054	-0,057
5,28	-0,055	-0,067
5,281	-0,055	-0,075
5,282	-0,054	-0,069
5,283	-0,053	-0,054
5,284	-0,051	-0,038
5,285	-0,050	-0,039
5,286	-0,048	-0,040
5,287	-0,046	-0,037
5,288	-0,044	-0,036
5,289	-0,043	-0,032
5,29	-0,041	-0,032
5,291	-0,041	-0,041
5,292	-0,040	-0,041
5,293	-0,040	-0,045
5,294	-0,040	-0,075
5,295	-0,041	-0,066
5,296	-0,042	-0,043
5,297	-0,043	-0,038
5,298	-0,044	-0,040
5,299	-0,045	-0,055
5,3	-0,045	-0,053
5,301	-0,046	-0,036
5,302	-0,046	-0,015
5,303	-0,045	-0,013
5,304	-0,045	-0,038
5,305	-0,044	-0,045
5,306	-0,042	-0,040
5,307	-0,041	-0,048
5,308	-0,039	-0,050
5,309	-0,037	-0,043
5,31	-0,035	-0,044
5,311	-0,033	-0,050
5,312	-0,031	-0,041
5,313	-0,029	-0,038
5,314	-0,027	-0,031
5,315	-0,024	-0,023
5,316	-0,022	-0,014
5,317	-0,020	-0,001
5,318	-0,017	-0,005
5,319	-0,014	-0,013
5,32	-0,012	-0,007
5,321	-0,009	0,001
5,322	-0,006	-0,003
5,323	-0,003	-0,001
5,324	-0,000	0,007
5,325	0,002	-0,004
5,326	0,005	-0,007
5,327	0,007	-0,001
5,328	0,008	-0,003
5,329	0,010	-0,006
5,33	0,011	-0,005
5,331	0,012	0,008
5,332	0,012	0,020
5,333	0,012	0,032
5,334	0,012	0,018
5,335	0,012	0,010
5,336	0,012	0,028
5,337	0,012	0,018
5,338	0,013	0,016
5,339	0,013	0,026
5,34	0,014	0,015
5,341	0,015	0,009
5,342	0,016	0,013
5,343	0,017	0,014
5,344	0,019	-0,001
5,345	0,021	-0,003
5,346	0,022	0,028
5,347	0,024	0,032
5,348	0,025	0,023
5,349	0,027	0,037
5,35	0,028	0,040
5,351	0,029	0,026
5,352	0,029	0,023
5,353	0,030	0,013
5,354	0,031	0,018
5,355	0,031	0,049
5,356	0,032	0,055
5,357	0,034	0,048
5,358	0,035	0,047
5,359	0,037	0,046
5,36	0,040	0,034
5,361	0,044	0,019
5,362	0,047	0,033
5,363	0,052	0,058
5,364	0,057	0,059
5,365	0,063	0,041
5,366	0,069	0,056
5,367	0,075	0,078
5,368	0,081	0,083
5,369	0,087	0,093
5,37	0,093	0,098
5,371	0,099	0,104
5,372	0,104	0,107
5,373	0,109	0,116
5,374	0,114	0,128
5,375	0,118	0,128
5,376	0,123	0,125
5,377	0,127	0,126
5,378	0,131	0,124
5,379	0,135	0,125
5,38	0,140	0,125
5,381	0,144	0,139
5,382	0,149	0,163
5,383	0,154	0,162
5,384	0,159	0,150
5,385	0,165	0,146
5,386	0,170	0,150
5,387	0,175	0,166
5,388	0,181	0,200
5,389	0,186	0,200
5,39	0,190	0,193
5,391	0,194	0,210
5,392	0,197	0,218
5,393	0,200	0,215
5,394	0,203	0,205
5,395	0,204	0,192
5,396	0,205	0,177
5,397	0,206	0,188
5,398	0,207	0,202
5,399	0,207	0,206
5,4	0,207	0,227
5,401	0,207	0,219
5,402	0,207	0,188
5,403	0,208	0,196
5,404	0,208	0,220
5,405	0,209	0,211
5,406	0,211	0,211
5,407	0,212	0,218
5,408	0,214	0,209
5,409	0,215	0,213
5,41	0,217	0,225
5,411	0,219	0,226
5,412	0,220	0,223
5,413	0,221	0,220
5,414	0,222	0,202
5,415	0,222	0,208
5,416	0,222	0,230
5,417	0,222	0,238
5,418	0,220	0,239
5,419	0,218	0,230
5,42	0,216	0,214
5,421	0,213	0,199
5,422	0,209	0,194
5,423	0,205	0,189
5,424	0,200	0,192
5,425	0,195	0,196
5,426	0,189	0,186
5,427	0,183	0,181
5,428	0,176	0,186
5,429	0,169	0,184
5,43	0,161	0,169
5,431	0,153	0,164
5,432	0,144	0,158
5,433	0,135	0,136
5,434	0,125	0,115
5,435	0,116	0,094
5,436	0,105	0,080
5,437	0,095	0,099
5,438	0,085	0,114
5,439	0,074	0,086
5,44	0,064	0,066
5,441	0,054	0,057
5,442	0,045	0,041
5,443	0,035	0,021
5,444	0,026	0,001
5,445	0,017	0,000
5,446	0,008	-0,002
5,447	0,000	0,008
5,448	-0,008	0,016
5,449	-0,015	0,007
5,45	-0,023	-0,004
5,451	-0,030	-0,030
5,452	-0,036	-0,037
5,453	-0,043	-0,045
5,454	-0,049	-0,061
5,455	-0,055	-0,058
5,456	-0,061	-0,062
5,457	-0,066	-0,064
5,458	-0,071	-0,072
5,459	-0,076	-0,082
5,46	-0,080	-0,085
5,461	-0,084	-0,089
5,462	-0,087	-0,094
5,463	-0,090	-0,096
5,464	-0,092	-0,092
5,465	-0,094	-0,096
5,466	-0,095	-0,089
5,467	-0,096	-0,083
5,468	-0,097	-0,090
5,469	-0,097	-0,092
5,47	-0,097	-0,087
5,471	-0,097	-0,085
5,472	-0,097	-0,095
5,473	-0,097	-0,101
5,474	-0,097	-0,110
5,475	-0,097	-0,106
5,476	-0,097	-0,105
5,477	-0,098	-0,121
5,478	-0,098	-0,101
5,479	-0,099	-0,085
5,48	-0,099	-0,099
5,481	-0,100	-0,104
5,482	-0,101	-0,112
5,483	-0,102	-0,100
5,484	-0,104	-0,083
5,485	-0,105	-0,083
5,486	-0,106	-0,084
5,487	-0,108	-0,106
5,488	-0,109	-0,123
5,489	-0,110	-0,129
5,49	-0,111	-0,129
5,491	-0,112	-0,134
5,492	-0,112	-0,125
5,493	-0,112	-0,094
5,494	-0,111	-0,077
5,495	-0,110	-0,100
5,496	-0,109	-0,122
5,497	-0,107	-0,111
5,498	-0,105	-0,109
5,499	-0,103	-0,104
5,5	-0,100	-0,104
5,501	-0,098	-0,101
5,502	-0,096	-0,088
5,503	-0,094	-0,088
5,504	-0,093	-0,087
5,505	-0,092	-0,086
5,506	-0,092	-0,090
5,507	-0,093	-0,099
5,508	-0,094	-0,111
5,509	-0,097	-0,102
5,51	-0,099	-0,098
5,511	-0,103	-0,101
5,512	-0,106	-0,099
5,513	-0,110	-0,117
5,514	-0,113	-0,122
5,515	-0,116	-0,107
5,516	-0,119	-0,109
5,517	-0,121	-0,110
5,518	-0,121	-0,120
5,519	-0,121	-0,124
5,52	-0,120	-0,114
5,521	-0,118	-0,117
5,522	-0,115	-0,120
5,523	-0,111	-0,124
5,524	-0,107	-0,113
5,525	-0,103	-0,102
5,526	-0,098	-0,104
5,527	-0,094	-0,100
5,528	-0,090	-0,095
5,529	-0,087	-0,091
5,53	-0,085	-0,078
5,531	-0,084	-0,058
5,532	-0,084	-0,070
5,533	-0,085	-0,092
5,534	-0,087	-0,094
5,535	-0,089	-0,099
5,536	-0,092	-0,086
5,537	-0,095	-0,088
5,538	-0,099	-0,097
5,539	-0,102	-0,092
5,54	-0,105	-0,117
5,541	-0,107	-0,125
5,542	-0,108	-0,113
5,543	-0,109	-0,112
5,544	-0,108	-0,115
5,545	-0,107	-0,107
5,546	-0,105	-0,089
5,547	-0,102	-0,095
5,548	-0,099	-0,107
5,549	-0,096	-0,101
5,55	-0,093	-0,086
5,551	-0,090	-0,074
5,552	-0,087	-0,069
5,553	-0,085	-0,088
5,554	-0,084	-0,104
5,555	-0,083	-0,092
5,556	-0,083	-0,092
5,557	-0,083	-0,087
5,558	-0,084	-0,080
5,559	-0,086	-0,086
5,56	-0,088	-0,092
5,561	-0,090	-0,084
5,562	-0,092	-0,081
5,563	-0,094	-0,095
5,564	-0,095	-0,090
5,565	-0,096	-0,097
5,566	-0,097	-0,098
5,567	-0,096	-0,096
5,568	-0,095	-0,111
5,569	-0,094	-0,106
5,57	-0,092	-0,092
5,571	-0,090	-0,077
5,572	-0,087	-0,081
5,573	-0,084	-0,087
5,574	-0,081	-0,080
5,575	-0,079	-0,077
5,576	-0,076	-0,075
5,577	-0,075	-0,071
5,578	-0,073	-0,071
5,579	-0,072	-0,068
5,58	-0,072	-0,063
5,581	-0,072	-0,070
5,582	-0,073	-0,077
5,583	-0,074	-0,095
5,584	-0,075	-0,105
5,585	-0,076	-0,082
5,586	-0,078	-0,066
5,587	-0,079	-0,060
5,588	-0,080	-0,062
5,589	-0,080	-0,079
5,59	-0,081	-0,084
5,591	-0,080	-0,087
5,592	-0,079	-0,091
5,593	-0,078	-0,088
5,594	-0,076	-0,071
5,595	-0,074	-0,055
5,596	-0,071	-0,054
5,597	-0,069	-0,057
5,598	-0,067	-0,071
5,599	-0,065	-0,059
5,6	-0,063	-0,068
5,601	-0,062	-0,089
5,602	-0,062	-0,075
5,603	-0,062	-0,072
5,604	-0,063	-0,068
5,605	-0,065	-0,068
5,606	-0,067	-0,074
5,607	-0,070	-0,078
5,608	-0,072	-0,066
5,609	-0,075	-0,045
5,61	-0,078	-0,050
5,611	-0,080	-0,065
5,612	-0,081	-0,079
5,613	-0,082	-0,093
5,614	-0,082	-0,086
5,615	-0,081	-0,077
5,616	-0,079	-0,076
5,617	-0,076	-0,078
5,618	-0,073	-0,094
5,619	-0,069	-0,096
5,62	-0,065	-0,086
5,621	-0,061	-0,067
5,622	-0,057	-0,035
5,623	-0,054	-0,040
5,624	-0,051	-0,061
5,625	-0,049	-0,057
5,626	-0,048	-0,034
5,627	-0,048	-0,025
5,628	-0,049	-0,031
5,629	-0,051	-0,040
5,63	-0,053	-0,057
5,631	-0,057	-0,057
5,632	-0,060	-0,051
5,633	-0,063	-0,073
5,634	-0,067	-0,097
5,635	-0,069	-0,091
5,636	-0,071	-0,078
5,637	-0,073	-0,066
5,638	-0,073	-0,073
5,639	-0,072	-0,076
5,64	-0,071	-0,054
5,641	-0,069	-0,052
5,642	-0,066	-0,069
5,643	-0,063	-0,061
5,644	-0,060	-0,067
5,645	-0,057	-0,076
5,646	-0,055	-0,055
5,647	-0,053	-0,036
5,648	-0,052	-0,033
5,649	-0,052	-0,052
5,65	-0,053	-0,054
5,651	-0,055	-0,050
5,652	-0,058	-0,064
5,653	-0,061	-0,071
5,654	-0,065	-0,073
5,655	-0,069	-0,073
5,656	-0,073	-0,078
5,657	-0,076	-0,081
5,658	-0,079	-0,068
5,659	-0,081	-0,070
5,66	-0,083	-0,084
5,661	-0,083	-0,085
5,662	-0,082	-0,095
5,663	-0,081	-0,100
5,664	-0,079	-0,087
5,665	-0,076	-0,063
5,666	-0,073	-0,038
5,667	-0,070	-0,041
5,668	-0,067	-0,064
5,669	-0,065	-0,079
5,67	-0,063	-0,075
5,671	-0,062	-0,072
5,672	-0,061	-0,063
5,673	-0,062	-0,058
5,674	-0,063	-0,063
5,675	-0,064	-0,074
5,676	-0,066	-0,087
5,677	-0,068	-0,070
5,678	-0,070	-0,063
5,679	-0,072	-0,060
5,68	-0,073	-0,066
5,681	-0,073	-0,090
5,682	-0,072	-0,072
5,683	-0,070	-0,056
5,684	-0,067	-0,060
5,685	-0,064	-0,054
5,686	-0,059	-0,051
5,687	-0,055	-0,055
5,688	-0,050	-0,042
5,689	-0,045	-0,030
5,69	-0,040	-0,052
5,691	-0,036	-0,065
5,692	-0,033	-0,057
5,693	-0,031	-0,049
5,694	-0,030	-0,028
5,695	-0,031	-0,015
5,696	-0,033	-0,018
5,697	-0,035	-0,021
5,698	-0,039	-0,036
5,699	-0,043	-0,045
5,7	-0,048	-0,053
5,701	-0,052	-0,065
5,702	-0,056	-0,062
5,703	-0,059	-0,058
5,704	-0,062	-0,049
5,705	-0,062	-0,039
5,706	-0,062	-0,050
5,707	-0,060	-0,063
5,708	-0,056	-0,068
5,709	-0,052	-0,063
5,71	-0,046	-0,053
5,711	-0,039	-0,053
5,712	-0,032	-0,034
5,713	-0,025	-0,022
5,714	-0,018	-0,015
5,715	-0,011	-0,006
5,716	-0,006	-0,009
5,717	-0,001	-0,014
5,718	0,002	-0,016
5,719	0,004	0,002
5,72	0,005	0,026
5,721	0,005	0,041
5,722	0,003	0,037
5,723	0,001	0,016
5,724	-0,001	-0,005
5,725	-0,003	-0,020
5,726	-0,005	-0,035
5,727	-0,007	-0,036
5,728	-0,008	-0,023
5,729	-0,008	-0,031
5,73	-0,007	-0,019
5,731	-0,005	0,015
5,732	-0,002	0,017
5,733	0,001	0,014
5,734	0,004	0,020
5,735	0,008	0,031
5,736	0,011	0,025
5,737	0,014	0,015
5,738	0,016	0,015
5,739	0,016	0,001
5,74	0,015	-0,003
5,741	0,013	0,000
5,742	0,009	0,003
5,743	0,004	-0,000
5,744	-0,003	-0,012
5,745	-0,010	-0,012
5,746	-0,018	-0,012
5,747	-0,027	-0,021
5,748	-0,035	-0,030
5,749	-0,043	-0,034
5,75	-0,050	-0,047
5,751	-0,057	-0,054
5,752	-0,062	-0,058
5,753	-0,065	-0,070
5,754	-0,068	-0,056
5,755	-0,069	-0,058
5,756	-0,069	-0,067
5,757	-0,068	-0,071
5,758	-0,066	-0,096
5,759	-0,064	-0,083
5,76	-0,061	-0,073
5,761	-0,058	-0,061
5,762	-0,056	-0,035
5,763	-0,054	-0,040
5,764	-0,052	-0,046
5,765	-0,051	-0,058
5,766	-0,050	-0,052
5,767	-0,050	-0,037
5,768	-0,050	-0,045
5,769	-0,051	-0,050
5,77	-0,051	-0,045
5,771	-0,052	-0,051
5,772	-0,052	-0,061
5,773	-0,053	-0,072
5,774	-0,053	-0,060
5,775	-0,053	-0,049
5,776	-0,054	-0,058
5,777	-0,054	-0,058
5,778	-0,055	-0,055
5,779	-0,056	-0,046
5,78	-0,058	-0,042
5,781	-0,060	-0,053
5,782	-0,062	-0,055
5,783	-0,065	-0,072
5,784	-0,068	-0,084
5,785	-0,072	-0,072
5,786	-0,075	-0,091
5,787	-0,078	-0,110
5,788	-0,080	-0,082
5,789	-0,082	-0,050
5,79	-0,083	-0,056
5,791	-0,082	-0,068
5,792	-0,080	-0,080
5,793	-0,077	-0,081
5,794	-0,073	-0,068
5,795	-0,067	-0,066
5,796	-0,061	-0,068
5,797	-0,055	-0,066
5,798	-0,048	-0,065
5,799	-0,041	-0,058
5,8	-0,035	-0,041
5,801	-0,031	-0,019
5,802	-0,027	-0,016
5,803	-0,024	-0,026
5,804	-0,024	-0,029
5,805	-0,024	-0,024
5,806	-0,026	-0,013
5,807	-0,029	-0,006
5,808	-0,032	-0,016
5,809	-0,034	-0,035
5,81	-0,037	-0,046
5,811	-0,038	-0,052
5,812	-0,037	-0,047
5,813	-0,033	-0,043
5,814	-0,027	-0,039
5,815	-0,017	-0,017
5,816	-0,004	0,001
5,817	0,013	0,018
5,818	0,033	0,049
5,819	0,056	0,067
5,82	0,082	0,086
5,821	0,110	0,120
5,822	0,139	0,136
5,823	0,170	0,152
5,824	0,201	0,175
5,825	0,231	0,207
5,826	0,260	0,240
5,827	0,288	0,296
5,828	0,313	0,350
5,829	0,335	0,363
5,83	0,355	0,376
5,831	0,371	0,374
5,832	0,383	0,381
5,833	0,391	0,398
5,834	0,396	0,391
5,835	0,396	0,384
5,836	0,393	0,375
5,837	0,387	0,369
5,838	0,376	0,363
5,839	0,362	0,360
5,84	0,345	0,340
5,841	0,324	0,321
5,842	0,301	0,327
5,843	0,276	0,297
5,844	0,248	0,238
5,845	0,218	0,212
5,846	0,187	0,189
5,847	0,156	0,155
5,848	0,124	0,122
5,849	0,094	0,096
5,85	0,064	0,086
5,851	0,036	0,051
5,852	0,011	0,014
5,853	-0,012	0,001
5,854	-0,031	-0,024
5,855	-0,046	-0,076
5,856	-0,059	-0,110
5,857	-0,067	-0,105
5,858	-0,073	-0,081
5,859	-0,075	-0,060
5,86	-0,074	-0,050
5,861	-0,071	-0,042
5,862	-0,067	-0,051
5,863	-0,062	-0,054
5,864	-0,057	-0,057
5,865	-0,051	-0,057
5,866	-0,047	-0,041
5,867	-0,043	-0,048
5,868	-0,041	-0,053
5,869	-0,040	-0,043
5,87	-0,041	-0,041
5,871	-0,042	-0,045
5,872	-0,045	-0,042
5,873	-0,049	-0,038
5,874	-0,052	-0,062
5,875	-0,056	-0,075
5,876	-0,060	-0,060
5,877	-0,063	-0,060
