Interval=	0,001 s
ExcelDateTime=	4,0916897729675111e+004	2012-01-08 21:32:43,843929
TimeFormat=	StartOfBlock
DateFormat=	
ChannelTitle=	Channel 3	Channel 4
Range=	5,000 mV	5,000 mV
0	-0,036	0,054
0,001	-0,036	0,071
0,002	-0,036	0,050
0,003	-0,036	0,032
0,004	-0,036	0,079
0,005	-0,036	0,100
0,006	-0,036	0,103
0,007	-0,036	0,101
0,008	-0,036	0,076
0,009	-0,036	0,104
0,01	-0,036	0,127
0,011	-0,036	0,104
0,012	-0,036	0,097
0,013	-0,036	0,103
0,014	-0,036	0,116
0,015	-0,036	0,135
0,016	-0,036	0,169
0,017	-0,036	0,196
0,018	-0,035	0,186
0,019	-0,035	0,189
0,02	-0,035	0,193
0,021	-0,035	0,185
0,022	-0,035	0,212
0,023	-0,035	0,235
0,024	-0,035	0,242
0,025	-0,035	0,270
0,026	-0,035	0,263
0,027	-0,035	0,259
0,028	-0,035	0,242
0,029	-0,035	0,227
0,03	-0,035	0,263
0,031	-0,035	0,259
0,032	-0,035	0,273
0,033	-0,035	0,249
0,034	-0,035	0,194
0,035	-0,035	0,227
0,036	-0,035	0,238
0,037	-0,035	0,230
0,038	-0,035	0,250
0,039	-0,035	0,255
0,04	-0,035	0,268
0,041	-0,035	0,266
0,042	-0,035	0,231
0,043	-0,035	0,233
0,044	-0,035	0,247
0,045	-0,035	0,263
0,046	-0,035	0,284
0,047	-0,035	0,278
0,048	-0,035	0,271
0,049	-0,035	0,272
0,05	-0,035	0,263
0,051	-0,035	0,251
0,052	-0,035	0,238
0,053	-0,035	0,224
0,054	-0,035	0,241
0,055	-0,035	0,252
0,056	-0,035	0,243
0,057	-0,035	0,231
0,058	-0,035	0,225
0,059	-0,035	0,222
0,06	-0,035	0,234
0,061	-0,035	0,235
0,062	-0,035	0,194
0,063	-0,035	0,186
0,064	-0,035	0,184
0,065	-0,035	0,171
0,066	-0,035	0,181
0,067	-0,035	0,165
0,068	-0,035	0,149
0,069	-0,035	0,145
0,07	-0,035	0,158
0,071	-0,035	0,158
0,072	-0,035	0,137
0,073	-0,035	0,146
0,074	-0,035	0,140
0,075	-0,035	0,126
0,076	-0,035	0,122
0,077	-0,035	0,117
0,078	-0,035	0,121
0,079	-0,035	0,113
0,08	-0,035	0,076
0,081	-0,035	0,031
0,082	-0,035	0,047
0,083	-0,035	0,064
0,084	-0,035	0,040
0,085	-0,035	0,029
0,086	-0,035	0,020
0,087	-0,035	0,030
0,088	-0,035	0,027
0,089	-0,035	0,016
0,09	-0,035	0,010
0,091	-0,035	0,011
0,092	-0,035	0,018
0,093	-0,035	-0,007
0,094	-0,035	-0,024
0,095	-0,035	-0,025
0,096	-0,035	-0,020
0,097	-0,035	-0,007
0,098	-0,035	-0,019
0,099	-0,035	-0,051
0,1	-0,035	-0,044
0,101	-0,035	0,018
0,102	-0,035	0,020
0,103	-0,035	-0,039
0,104	-0,035	-0,058
0,105	-0,035	-0,065
0,106	-0,035	-0,055
0,107	-0,035	-0,059
0,108	-0,035	-0,058
0,109	-0,035	-0,054
0,11	-0,035	-0,060
0,111	-0,035	-0,077
0,112	-0,035	-0,102
0,113	-0,035	-0,079
0,114	-0,035	-0,060
0,115	-0,035	-0,074
0,116	-0,035	-0,088
0,117	-0,035	-0,099
0,118	-0,035	-0,092
0,119	-0,035	-0,063
0,12	-0,035	-0,067
0,121	-0,035	-0,062
0,122	-0,035	-0,045
0,123	-0,035	-0,042
0,124	-0,035	-0,040
0,125	-0,035	-0,054
0,126	-0,035	-0,059
0,127	-0,035	-0,029
0,128	-0,035	-0,010
0,129	-0,035	-0,024
0,13	-0,035	-0,030
0,131	-0,035	-0,030
0,132	-0,035	-0,028
0,133	-0,035	-0,036
0,134	-0,035	-0,050
0,135	-0,035	-0,053
0,136	-0,035	-0,047
0,137	-0,035	-0,062
0,138	-0,035	-0,061
0,139	-0,035	-0,047
0,14	-0,035	-0,060
0,141	-0,035	-0,054
0,142	-0,035	-0,057
0,143	-0,035	-0,081
0,144	-0,035	-0,083
0,145	-0,035	-0,058
0,146	-0,035	-0,037
0,147	-0,035	-0,033
0,148	-0,035	-0,054
0,149	-0,035	-0,044
0,15	-0,035	-0,025
0,151	-0,035	-0,040
0,152	-0,035	-0,044
0,153	-0,035	-0,052
0,154	-0,035	-0,061
0,155	-0,035	-0,075
0,156	-0,035	-0,058
0,157	-0,035	-0,034
0,158	-0,035	-0,032
0,159	-0,035	-0,047
0,16	-0,035	-0,031
0,161	-0,035	-0,018
0,162	-0,035	-0,038
0,163	-0,035	-0,014
0,164	-0,035	-0,024
0,165	-0,035	-0,055
0,166	-0,035	-0,048
0,167	-0,035	-0,030
0,168	-0,035	-0,022
0,169	-0,035	-0,040
0,17	-0,035	-0,043
0,171	-0,035	-0,026
0,172	-0,035	-0,031
0,173	-0,035	-0,033
0,174	-0,035	-0,020
0,175	-0,035	-0,033
0,176	-0,035	-0,035
0,177	-0,035	-0,036
0,178	-0,035	-0,041
0,179	-0,035	-0,045
0,18	-0,036	-0,050
0,181	-0,036	-0,055
0,182	-0,036	-0,030
0,183	-0,036	-0,008
0,184	-0,036	-0,044
0,185	-0,035	-0,048
0,186	-0,035	-0,031
0,187	-0,035	-0,032
0,188	-0,035	-0,022
0,189	-0,035	-0,002
0,19	-0,036	-0,018
0,191	-0,036	-0,035
0,192	-0,037	-0,048
0,193	-0,037	-0,067
0,194	-0,038	-0,060
0,195	-0,039	-0,053
0,196	-0,039	-0,043
0,197	-0,039	-0,052
0,198	-0,039	-0,048
0,199	-0,038	-0,024
0,2	-0,037	-0,016
0,201	-0,036	-0,022
0,202	-0,035	-0,012
0,203	-0,034	0,002
0,204	-0,034	-0,033
0,205	-0,033	-0,051
0,206	-0,033	-0,059
0,207	-0,034	-0,053
0,208	-0,035	-0,034
0,209	-0,037	-0,049
0,21	-0,039	-0,055
0,211	-0,042	-0,038
0,212	-0,045	-0,043
0,213	-0,048	-0,053
0,214	-0,051	-0,021
0,215	-0,054	-0,035
0,216	-0,057	-0,070
0,217	-0,060	-0,063
0,218	-0,061	-0,052
0,219	-0,062	-0,067
0,22	-0,063	-0,061
0,221	-0,062	-0,047
0,222	-0,061	-0,070
0,223	-0,060	-0,070
0,224	-0,057	-0,064
0,225	-0,055	-0,059
0,226	-0,052	-0,047
0,227	-0,050	-0,045
0,228	-0,048	-0,049
0,229	-0,045	-0,054
0,23	-0,044	-0,046
0,231	-0,042	-0,046
0,232	-0,042	-0,053
0,233	-0,041	-0,053
0,234	-0,041	-0,034
0,235	-0,040	-0,018
0,236	-0,040	-0,024
0,237	-0,040	-0,020
0,238	-0,039	-0,029
0,239	-0,038	-0,052
0,24	-0,036	-0,054
0,241	-0,034	-0,041
0,242	-0,032	-0,009
0,243	-0,029	-0,009
0,244	-0,025	-0,040
0,245	-0,021	-0,040
0,246	-0,018	-0,045
0,247	-0,014	-0,051
0,248	-0,010	-0,029
0,249	-0,007	0,003
0,25	-0,004	0,018
0,251	-0,002	0,008
0,252	0,000	0,014
0,253	0,001	0,036
0,254	0,002	0,056
0,255	0,002	0,049
0,256	0,002	-0,023
0,257	0,001	-0,054
0,258	0,000	-0,042
0,259	-0,000	-0,049
0,26	-0,001	0,007
0,261	-0,002	0,036
0,262	-0,002	-0,000
0,263	-0,002	-0,004
0,264	-0,001	-0,019
0,265	-0,001	-0,018
0,266	0,000	0,013
0,267	0,001	0,019
0,268	0,003	0,020
0,269	0,005	0,034
0,27	0,006	0,007
0,271	0,009	-0,012
0,272	0,011	0,005
0,273	0,013	0,019
0,274	0,015	0,041
0,275	0,018	0,006
0,276	0,021	-0,012
0,277	0,024	0,009
0,278	0,027	0,011
0,279	0,030	0,030
0,28	0,032	0,051
0,281	0,035	0,062
0,282	0,038	0,048
0,283	0,040	0,037
0,284	0,041	0,043
0,285	0,042	0,032
0,286	0,042	0,021
0,287	0,041	0,026
0,288	0,039	0,040
0,289	0,036	0,063
0,29	0,032	0,053
0,291	0,027	0,017
0,292	0,021	0,010
0,293	0,015	0,003
0,294	0,008	-0,003
0,295	0,002	0,000
0,296	-0,005	0,003
0,297	-0,012	0,004
0,298	-0,018	-0,013
0,299	-0,023	-0,013
0,3	-0,028	-0,014
0,301	-0,032	-0,031
0,302	-0,035	-0,043
0,303	-0,038	-0,042
0,304	-0,040	-0,042
0,305	-0,041	-0,054
0,306	-0,043	-0,074
0,307	-0,044	-0,071
0,308	-0,046	-0,050
0,309	-0,048	-0,031
0,31	-0,050	-0,027
0,311	-0,052	-0,032
0,312	-0,054	-0,042
0,313	-0,057	-0,046
0,314	-0,060	-0,042
0,315	-0,062	-0,064
0,316	-0,065	-0,067
0,317	-0,067	-0,067
0,318	-0,069	-0,094
0,319	-0,070	-0,089
0,32	-0,071	-0,070
0,321	-0,071	-0,088
0,322	-0,071	-0,090
0,323	-0,070	-0,065
0,324	-0,069	-0,058
0,325	-0,068	-0,047
0,326	-0,067	-0,054
0,327	-0,066	-0,059
0,328	-0,065	-0,050
0,329	-0,065	-0,068
0,33	-0,066	-0,078
0,331	-0,067	-0,083
0,332	-0,068	-0,088
0,333	-0,070	-0,060
0,334	-0,072	-0,062
0,335	-0,073	-0,075
0,336	-0,074	-0,072
0,337	-0,075	-0,084
0,338	-0,074	-0,083
0,339	-0,073	-0,069
0,34	-0,070	-0,045
0,341	-0,066	-0,029
0,342	-0,061	-0,055
0,343	-0,056	-0,067
0,344	-0,049	-0,046
0,345	-0,043	-0,063
0,346	-0,037	-0,080
0,347	-0,031	-0,072
0,348	-0,027	-0,041
0,349	-0,023	-0,002
0,35	-0,021	-0,011
0,351	-0,020	-0,014
0,352	-0,021	0,000
0,353	-0,023	-0,008
0,354	-0,026	0,001
0,355	-0,030	0,008
0,356	-0,034	-0,022
0,357	-0,037	-0,045
0,358	-0,038	-0,059
0,359	-0,038	-0,062
0,36	-0,035	-0,065
0,361	-0,029	-0,033
0,362	-0,020	-0,006
0,363	-0,006	-0,014
0,364	0,012	-0,009
0,365	0,034	-0,007
0,366	0,060	0,052
0,367	0,090	0,119
0,368	0,123	0,150
0,369	0,158	0,177
0,37	0,194	0,210
0,371	0,232	0,240
0,372	0,270	0,265
0,373	0,306	0,314
0,374	0,341	0,372
0,375	0,373	0,394
0,376	0,402	0,378
0,377	0,426	0,399
0,378	0,446	0,435
0,379	0,460	0,429
0,38	0,470	0,448
0,381	0,473	0,474
0,382	0,471	0,451
0,383	0,464	0,441
0,384	0,450	0,461
0,385	0,431	0,461
0,386	0,408	0,437
0,387	0,381	0,417
0,388	0,349	0,377
0,389	0,314	0,342
0,39	0,277	0,290
0,391	0,238	0,209
0,392	0,198	0,158
0,393	0,157	0,110
0,394	0,117	0,070
0,395	0,079	0,060
0,396	0,042	0,059
0,397	0,008	0,048
0,398	-0,024	0,014
0,399	-0,051	-0,034
0,4	-0,075	-0,063
0,401	-0,095	-0,100
0,402	-0,110	-0,105
0,403	-0,122	-0,123
0,404	-0,130	-0,159
0,405	-0,134	-0,146
0,406	-0,136	-0,150
0,407	-0,135	-0,147
0,408	-0,133	-0,127
0,409	-0,128	-0,133
0,41	-0,123	-0,132
0,411	-0,117	-0,108
0,412	-0,112	-0,093
0,413	-0,107	-0,085
0,414	-0,103	-0,082
0,415	-0,100	-0,091
0,416	-0,097	-0,093
0,417	-0,096	-0,076
0,418	-0,095	-0,095
0,419	-0,095	-0,131
0,42	-0,095	-0,146
0,421	-0,096	-0,133
0,422	-0,096	-0,115
0,423	-0,097	-0,108
0,424	-0,097	-0,079
0,425	-0,096	-0,035
0,426	-0,095	-0,043
0,427	-0,094	-0,075
0,428	-0,092	-0,108
0,429	-0,090	-0,107
0,43	-0,087	-0,084
0,431	-0,085	-0,094
0,432	-0,083	-0,102
0,433	-0,081	-0,096
0,434	-0,080	-0,083
0,435	-0,080	-0,079
0,436	-0,080	-0,068
0,437	-0,081	-0,079
0,438	-0,083	-0,084
0,439	-0,085	-0,072
0,44	-0,087	-0,085
0,441	-0,089	-0,108
0,442	-0,091	-0,102
0,443	-0,093	-0,084
0,444	-0,094	-0,080
0,445	-0,094	-0,094
0,446	-0,094	-0,105
0,447	-0,092	-0,095
0,448	-0,089	-0,087
0,449	-0,086	-0,074
0,45	-0,082	-0,071
0,451	-0,077	-0,085
0,452	-0,072	-0,094
0,453	-0,066	-0,071
0,454	-0,060	-0,021
0,455	-0,055	-0,022
0,456	-0,051	-0,068
0,457	-0,047	-0,065
0,458	-0,043	-0,061
0,459	-0,041	-0,080
0,46	-0,040	-0,050
0,461	-0,039	-0,019
0,462	-0,039	-0,020
0,463	-0,040	-0,030
0,464	-0,042	-0,044
0,465	-0,044	-0,043
0,466	-0,046	-0,040
0,467	-0,048	-0,041
0,468	-0,049	-0,044
0,469	-0,051	-0,058
0,47	-0,051	-0,066
0,471	-0,051	-0,037
0,472	-0,050	-0,022
0,473	-0,048	-0,026
0,474	-0,046	-0,060
0,475	-0,043	-0,108
0,476	-0,040	-0,075
0,477	-0,036	-0,043
0,478	-0,031	-0,028
0,479	-0,027	-0,011
0,48	-0,023	-0,001
0,481	-0,019	0,007
0,482	-0,016	-0,002
0,483	-0,013	-0,003
0,484	-0,010	0,005
0,485	-0,008	-0,001
0,486	-0,007	-0,015
0,487	-0,006	-0,015
0,488	-0,005	-0,033
0,489	-0,005	-0,043
0,49	-0,006	-0,004
0,491	-0,006	0,008
0,492	-0,006	-0,005
0,493	-0,006	-0,006
0,494	-0,006	-0,025
0,495	-0,005	-0,014
0,496	-0,004	0,024
0,497	-0,003	0,039
0,498	-0,001	0,020
0,499	0,002	-0,016
0,5	0,005	0,002
0,501	0,008	0,013
0,502	0,011	-0,020
0,503	0,015	-0,001
0,504	0,019	0,031
0,505	0,022	0,027
0,506	0,026	0,030
0,507	0,029	0,022
0,508	0,033	0,039
0,509	0,036	0,041
0,51	0,038	0,015
0,511	0,041	0,035
0,512	0,043	0,040
0,513	0,045	0,033
0,514	0,047	0,059
0,515	0,049	0,081
0,516	0,051	0,062
0,517	0,053	0,058
0,518	0,055	0,066
0,519	0,057	0,049
0,52	0,060	0,051
0,521	0,063	0,047
0,522	0,067	0,053
0,523	0,071	0,056
0,524	0,076	0,069
0,525	0,081	0,098
0,526	0,087	0,092
0,527	0,093	0,104
0,528	0,100	0,115
0,529	0,107	0,105
0,53	0,115	0,104
0,531	0,122	0,132
0,532	0,130	0,140
0,533	0,138	0,116
0,534	0,146	0,131
0,535	0,153	0,158
0,536	0,161	0,162
0,537	0,168	0,173
0,538	0,175	0,186
0,539	0,182	0,200
0,54	0,188	0,205
0,541	0,194	0,193
0,542	0,199	0,169
0,543	0,204	0,166
0,544	0,208	0,205
0,545	0,212	0,226
0,546	0,216	0,215
0,547	0,219	0,219
0,548	0,222	0,229
0,549	0,224	0,236
0,55	0,226	0,235
0,551	0,228	0,226
0,552	0,230	0,243
0,553	0,232	0,241
0,554	0,234	0,233
0,555	0,235	0,224
0,556	0,237	0,208
0,557	0,238	0,233
0,558	0,240	0,252
0,559	0,241	0,255
0,56	0,242	0,239
0,561	0,243	0,207
0,562	0,244	0,236
0,563	0,245	0,268
0,564	0,246	0,266
0,565	0,246	0,268
0,566	0,247	0,254
0,567	0,247	0,238
0,568	0,247	0,225
0,569	0,247	0,229
0,57	0,247	0,247
0,571	0,246	0,269
0,572	0,245	0,251
0,573	0,244	0,228
0,574	0,242	0,236
0,575	0,239	0,237
0,576	0,236	0,239
0,577	0,233	0,238
0,578	0,228	0,238
0,579	0,223	0,225
0,58	0,217	0,210
0,581	0,211	0,206
0,582	0,204	0,213
0,583	0,196	0,208
0,584	0,187	0,185
0,585	0,178	0,184
0,586	0,169	0,164
0,587	0,160	0,126
0,588	0,151	0,128
0,589	0,141	0,165
0,59	0,133	0,135
0,591	0,124	0,100
0,592	0,117	0,138
0,593	0,109	0,138
0,594	0,103	0,124
0,595	0,097	0,129
0,596	0,092	0,087
0,597	0,087	0,044
0,598	0,083	0,050
0,599	0,079	0,071
0,6	0,075	0,090
0,601	0,071	0,079
0,602	0,066	0,057
0,603	0,061	0,048
0,604	0,056	0,057
0,605	0,050	0,062
0,606	0,043	0,048
0,607	0,036	0,049
0,608	0,028	0,021
0,609	0,020	0,016
0,61	0,012	0,045
0,611	0,003	0,015
0,612	-0,005	-0,024
0,613	-0,013	-0,009
0,614	-0,021	-0,024
0,615	-0,027	-0,053
0,616	-0,033	-0,053
0,617	-0,038	-0,037
0,618	-0,042	-0,026
0,619	-0,045	-0,051
0,62	-0,046	-0,049
0,621	-0,047	-0,031
0,622	-0,048	-0,041
0,623	-0,047	-0,047
0,624	-0,047	-0,034
0,625	-0,046	-0,040
0,626	-0,045	-0,062
0,627	-0,044	-0,072
0,628	-0,044	-0,048
0,629	-0,044	-0,035
0,63	-0,045	-0,045
0,631	-0,046	-0,021
0,632	-0,047	-0,013
0,633	-0,049	-0,038
0,634	-0,051	-0,065
0,635	-0,053	-0,103
0,636	-0,055	-0,068
0,637	-0,056	-0,047
0,638	-0,058	-0,073
0,639	-0,058	-0,050
0,64	-0,058	-0,053
0,641	-0,058	-0,048
0,642	-0,057	-0,050
0,643	-0,055	-0,049
0,644	-0,053	-0,034
0,645	-0,050	-0,058
0,646	-0,047	-0,049
0,647	-0,045	-0,048
0,648	-0,042	-0,075
0,649	-0,040	-0,044
0,65	-0,039	-0,012
0,651	-0,038	-0,018
0,652	-0,037	-0,039
0,653	-0,038	-0,053
0,654	-0,039	-0,031
0,655	-0,041	-0,030
0,656	-0,044	-0,046
0,657	-0,047	-0,086
0,658	-0,051	-0,090
0,659	-0,054	-0,050
0,66	-0,058	-0,034
0,661	-0,062	-0,040
0,662	-0,065	-0,064
0,663	-0,067	-0,065
0,664	-0,069	-0,055
0,665	-0,070	-0,030
0,666	-0,071	-0,055
0,667	-0,070	-0,108
0,668	-0,069	-0,081
0,669	-0,068	-0,078
0,67	-0,066	-0,097
0,671	-0,063	-0,075
0,672	-0,060	-0,051
0,673	-0,057	-0,063
0,674	-0,053	-0,051
0,675	-0,050	-0,022
0,676	-0,047	-0,030
0,677	-0,044	-0,034
0,678	-0,041	-0,037
0,679	-0,039	-0,047
0,68	-0,037	-0,047
0,681	-0,035	-0,036
0,682	-0,034	-0,037
0,683	-0,033	-0,048
0,684	-0,032	-0,027
0,685	-0,032	-0,018
0,686	-0,032	-0,033
0,687	-0,032	-0,029
0,688	-0,033	-0,036
0,689	-0,034	-0,029
0,69	-0,035	-0,031
0,691	-0,036	-0,056
0,692	-0,038	-0,054
0,693	-0,040	-0,037
0,694	-0,042	-0,034
0,695	-0,045	-0,029
0,696	-0,047	-0,037
0,697	-0,050	-0,055
0,698	-0,053	-0,067
0,699	-0,056	-0,059
0,7	-0,059	-0,037
0,701	-0,062	-0,057
0,702	-0,065	-0,078
0,703	-0,067	-0,083
0,704	-0,069	-0,069
0,705	-0,071	-0,047
0,706	-0,071	-0,060
0,707	-0,072	-0,088
0,708	-0,071	-0,102
0,709	-0,070	-0,095
0,71	-0,069	-0,051
0,711	-0,067	-0,055
0,712	-0,065	-0,066
0,713	-0,062	-0,038
0,714	-0,060	-0,055
0,715	-0,057	-0,041
0,716	-0,055	-0,034
0,717	-0,053	-0,086
0,718	-0,052	-0,093
0,719	-0,051	-0,047
0,72	-0,051	-0,032
0,721	-0,051	-0,038
0,722	-0,051	-0,057
0,723	-0,052	-0,049
0,724	-0,054	-0,047
0,725	-0,055	-0,070
0,726	-0,056	-0,068
0,727	-0,057	-0,073
0,728	-0,058	-0,062
0,729	-0,058	-0,053
0,73	-0,058	-0,049
0,731	-0,057	-0,013
0,732	-0,056	-0,033
0,733	-0,054	-0,072
0,734	-0,052	-0,080
0,735	-0,050	-0,068
0,736	-0,047	-0,041
0,737	-0,045	-0,033
0,738	-0,043	-0,026
0,739	-0,042	-0,035
0,74	-0,041	-0,056
0,741	-0,041	-0,052
0,742	-0,042	-0,044
0,743	-0,043	-0,056
0,744	-0,044	-0,050
0,745	-0,046	-0,035
0,746	-0,048	-0,044
0,747	-0,049	-0,048
0,748	-0,051	-0,066
0,749	-0,052	-0,055
0,75	-0,052	-0,049
0,751	-0,051	-0,039
0,752	-0,049	-0,018
0,753	-0,046	-0,032
0,754	-0,042	-0,045
0,755	-0,038	-0,049
0,756	-0,032	-0,036
0,757	-0,026	-0,027
0,758	-0,020	-0,016
0,759	-0,014	-0,030
0,76	-0,009	-0,031
0,761	-0,004	-0,008
0,762	-0,000	0,010
0,763	0,002	0,006
0,764	0,004	-0,018
0,765	0,004	-0,011
0,766	0,003	0,011
0,767	0,002	0,017
0,768	-0,001	0,009
0,769	-0,004	0,004
0,77	-0,007	0,007
0,771	-0,010	0,014
0,772	-0,013	0,010
0,773	-0,015	0,010
0,774	-0,015	-0,022
0,775	-0,015	-0,045
0,776	-0,014	-0,056
0,777	-0,012	-0,053
0,778	-0,008	-0,022
0,779	-0,005	-0,036
0,78	-0,000	0,003
0,781	0,004	0,046
0,782	0,008	0,030
0,783	0,011	0,042
0,784	0,013	0,029
0,785	0,015	0,010
0,786	0,015	0,014
0,787	0,013	0,004
0,788	0,010	0,028
0,789	0,006	0,021
0,79	0,000	-0,030
0,791	-0,006	-0,039
0,792	-0,014	-0,043
0,793	-0,022	-0,010
0,794	-0,030	0,012
0,795	-0,037	-0,028
0,796	-0,045	-0,058
0,797	-0,052	-0,059
0,798	-0,058	-0,055
0,799	-0,064	-0,067
0,8	-0,069	-0,083
0,801	-0,073	-0,083
0,802	-0,077	-0,068
0,803	-0,080	-0,074
0,804	-0,083	-0,085
0,805	-0,085	-0,076
0,806	-0,087	-0,078
0,807	-0,089	-0,089
0,808	-0,090	-0,099
0,809	-0,092	-0,070
0,81	-0,093	-0,067
0,811	-0,094	-0,099
0,812	-0,095	-0,126
0,813	-0,096	-0,126
0,814	-0,096	-0,094
0,815	-0,095	-0,087
0,816	-0,095	-0,084
0,817	-0,094	-0,088
0,818	-0,093	-0,112
0,819	-0,091	-0,092
0,82	-0,090	-0,079
0,821	-0,089	-0,097
0,822	-0,089	-0,083
0,823	-0,089	-0,100
0,824	-0,089	-0,092
0,825	-0,091	-0,063
0,826	-0,093	-0,082
0,827	-0,095	-0,100
0,828	-0,098	-0,097
0,829	-0,101	-0,092
0,83	-0,104	-0,114
0,831	-0,107	-0,117
0,832	-0,109	-0,107
0,833	-0,110	-0,125
0,834	-0,109	-0,121
0,835	-0,108	-0,108
0,836	-0,105	-0,108
0,837	-0,100	-0,087
0,838	-0,094	-0,075
0,839	-0,087	-0,083
0,84	-0,079	-0,082
0,841	-0,071	-0,075
0,842	-0,063	-0,067
0,843	-0,055	-0,056
0,844	-0,048	-0,054
0,845	-0,043	-0,047
0,846	-0,040	-0,038
0,847	-0,039	-0,031
0,848	-0,040	-0,019
0,849	-0,043	-0,057
0,85	-0,048	-0,068
0,851	-0,055	-0,055
0,852	-0,063	-0,046
0,853	-0,071	-0,058
0,854	-0,080	-0,114
0,855	-0,087	-0,104
0,856	-0,093	-0,071
0,857	-0,096	-0,078
0,858	-0,096	-0,097
0,859	-0,092	-0,091
0,86	-0,085	-0,075
0,861	-0,073	-0,069
0,862	-0,057	-0,058
0,863	-0,037	-0,048
0,864	-0,012	-0,032
0,865	0,016	0,010
0,866	0,047	0,037
0,867	0,081	0,063
0,868	0,116	0,099
0,869	0,151	0,173
0,87	0,187	0,230
0,871	0,222	0,246
0,872	0,254	0,262
0,873	0,285	0,283
0,874	0,311	0,315
0,875	0,334	0,328
0,876	0,353	0,345
0,877	0,367	0,365
0,878	0,375	0,376
0,879	0,379	0,361
0,88	0,377	0,331
0,881	0,370	0,356
0,882	0,359	0,359
0,883	0,342	0,326
0,884	0,321	0,317
0,885	0,296	0,309
0,886	0,269	0,328
0,887	0,238	0,308
0,888	0,205	0,239
0,889	0,170	0,174
0,89	0,135	0,120
0,891	0,099	0,044
0,892	0,064	-0,019
0,893	0,029	-0,002
0,894	-0,004	0,000
0,895	-0,034	-0,002
0,896	-0,063	-0,031
0,897	-0,089	-0,104
0,898	-0,112	-0,105
0,899	-0,132	-0,121
0,9	-0,148	-0,127
0,901	-0,162	-0,133
0,902	-0,173	-0,161
0,903	-0,180	-0,182
0,904	-0,185	-0,235
0,905	-0,188	-0,233
0,906	-0,188	-0,193
0,907	-0,187	-0,177
0,908	-0,185	-0,169
0,909	-0,181	-0,168
0,91	-0,177	-0,167
0,911	-0,172	-0,172
0,912	-0,167	-0,165
0,913	-0,162	-0,145
0,914	-0,157	-0,142
0,915	-0,152	-0,160
0,916	-0,147	-0,176
0,917	-0,143	-0,160
0,918	-0,139	-0,142
0,919	-0,136	-0,127
0,92	-0,133	-0,126
0,921	-0,131	-0,143
0,922	-0,129	-0,137
0,923	-0,128	-0,121
0,924	-0,126	-0,112
0,925	-0,126	-0,127
0,926	-0,125	-0,129
0,927	-0,125	-0,125
0,928	-0,125	-0,138
0,929	-0,126	-0,121
0,93	-0,126	-0,101
0,931	-0,127	-0,104
0,932	-0,127	-0,125
0,933	-0,128	-0,143
0,934	-0,128	-0,133
0,935	-0,128	-0,140
0,936	-0,128	-0,160
0,937	-0,128	-0,134
0,938	-0,127	-0,100
0,939	-0,126	-0,129
0,94	-0,125	-0,135
0,941	-0,124	-0,122
0,942	-0,123	-0,120
0,943	-0,121	-0,108
0,944	-0,119	-0,111
0,945	-0,117	-0,117
0,946	-0,116	-0,122
0,947	-0,114	-0,101
0,948	-0,112	-0,100
0,949	-0,110	-0,115
0,95	-0,108	-0,115
0,951	-0,106	-0,119
0,952	-0,104	-0,121
0,953	-0,102	-0,113
0,954	-0,100	-0,098
0,955	-0,098	-0,086
0,956	-0,096	-0,078
0,957	-0,094	-0,082
0,958	-0,092	-0,088
0,959	-0,091	-0,090
0,96	-0,090	-0,092
0,961	-0,089	-0,087
0,962	-0,088	-0,102
0,963	-0,088	-0,108
0,964	-0,087	-0,091
0,965	-0,087	-0,094
0,966	-0,088	-0,105
0,967	-0,088	-0,074
0,968	-0,088	-0,072
0,969	-0,089	-0,097
0,97	-0,089	-0,064
0,971	-0,088	-0,049
0,972	-0,088	-0,062
0,973	-0,087	-0,094
0,974	-0,086	-0,112
0,975	-0,084	-0,097
0,976	-0,082	-0,103
0,977	-0,079	-0,117
0,978	-0,076	-0,106
0,979	-0,073	-0,068
0,98	-0,070	-0,052
0,981	-0,067	-0,041
0,982	-0,064	-0,044
0,983	-0,061	-0,048
0,984	-0,059	-0,027
0,985	-0,056	-0,055
0,986	-0,054	-0,089
0,987	-0,053	-0,076
0,988	-0,051	-0,035
0,989	-0,050	-0,040
0,99	-0,048	-0,068
0,991	-0,047	-0,057
0,992	-0,045	-0,046
0,993	-0,043	-0,025
0,994	-0,040	-0,019
0,995	-0,038	-0,058
0,996	-0,035	-0,059
0,997	-0,031	-0,030
0,998	-0,028	-0,022
0,999	-0,024	-0,015
1	-0,021	-0,011
1,001	-0,017	-0,012
1,002	-0,014	-0,017
1,003	-0,012	-0,005
1,004	-0,010	-0,005
1,005	-0,009	-0,015
1,006	-0,008	-0,023
1,007	-0,008	-0,004
1,008	-0,008	-0,000
1,009	-0,009	-0,027
1,01	-0,010	-0,016
1,011	-0,010	-0,012
1,012	-0,010	-0,007
1,013	-0,010	-0,010
1,014	-0,009	-0,007
1,015	-0,007	0,012
1,016	-0,004	0,012
1,017	0,000	0,022
1,018	0,005	0,008
1,019	0,012	-0,012
1,02	0,019	-0,003
1,021	0,026	0,003
1,022	0,034	0,021
1,023	0,042	0,049
1,024	0,050	0,061
1,025	0,058	0,073
1,026	0,065	0,087
1,027	0,072	0,070
1,028	0,078	0,067
1,029	0,083	0,075
1,03	0,087	0,062
1,031	0,091	0,081
1,032	0,094	0,127
1,033	0,097	0,119
1,034	0,100	0,108
1,035	0,103	0,119
1,036	0,107	0,101
1,037	0,111	0,100
1,038	0,115	0,115
1,039	0,121	0,102
1,04	0,127	0,097
1,041	0,134	0,129
1,042	0,142	0,137
1,043	0,150	0,142
1,044	0,158	0,165
1,045	0,167	0,181
1,046	0,175	0,199
1,047	0,182	0,189
1,048	0,189	0,204
1,049	0,195	0,220
1,05	0,200	0,195
1,051	0,204	0,192
1,052	0,207	0,193
1,053	0,210	0,201
1,054	0,211	0,204
1,055	0,211	0,203
1,056	0,211	0,202
1,057	0,210	0,191
1,058	0,209	0,214
1,059	0,207	0,216
1,06	0,206	0,205
1,061	0,204	0,234
1,062	0,202	0,218
1,063	0,201	0,185
1,064	0,199	0,198
1,065	0,197	0,198
1,066	0,195	0,179
1,067	0,193	0,188
1,068	0,190	0,190
1,069	0,187	0,200
1,07	0,183	0,207
1,071	0,179	0,180
1,072	0,175	0,166
1,073	0,170	0,154
1,074	0,164	0,162
1,075	0,159	0,167
1,076	0,154	0,139
1,077	0,148	0,130
1,078	0,142	0,138
1,079	0,137	0,157
1,08	0,132	0,158
1,081	0,127	0,117
1,082	0,122	0,090
1,083	0,116	0,112
1,084	0,111	0,131
1,085	0,106	0,129
1,086	0,100	0,117
1,087	0,094	0,095
1,088	0,088	0,085
1,089	0,081	0,079
1,09	0,073	0,073
1,091	0,064	0,051
1,092	0,055	0,029
1,093	0,046	0,035
1,094	0,036	0,039
1,095	0,026	0,029
1,096	0,017	0,006
1,097	0,007	-0,003
1,098	-0,002	0,005
1,099	-0,011	0,002
1,1	-0,018	0,002
1,101	-0,025	0,002
1,102	-0,031	-0,011
1,103	-0,037	-0,032
1,104	-0,041	-0,063
1,105	-0,045	-0,054
1,106	-0,048	-0,055
1,107	-0,051	-0,068
1,108	-0,054	-0,058
1,109	-0,057	-0,065
1,11	-0,059	-0,080
1,111	-0,062	-0,072
1,112	-0,066	-0,058
1,113	-0,070	-0,064
1,114	-0,074	-0,067
1,115	-0,078	-0,065
1,116	-0,083	-0,078
1,117	-0,087	-0,076
1,118	-0,092	-0,065
1,119	-0,096	-0,080
1,12	-0,100	-0,095
1,121	-0,104	-0,108
1,122	-0,106	-0,131
1,123	-0,109	-0,142
1,124	-0,110	-0,123
1,125	-0,111	-0,115
1,126	-0,112	-0,117
1,127	-0,112	-0,095
1,128	-0,112	-0,093
1,129	-0,111	-0,114
1,13	-0,111	-0,119
1,131	-0,111	-0,109
1,132	-0,111	-0,117
1,133	-0,111	-0,116
1,134	-0,112	-0,106
1,135	-0,113	-0,108
1,136	-0,114	-0,113
1,137	-0,115	-0,127
1,138	-0,116	-0,097
1,139	-0,117	-0,078
1,14	-0,118	-0,111
1,141	-0,118	-0,128
1,142	-0,118	-0,115
1,143	-0,118	-0,124
1,144	-0,117	-0,142
1,145	-0,115	-0,158
1,146	-0,114	-0,129
1,147	-0,111	-0,098
1,148	-0,109	-0,099
1,149	-0,106	-0,088
1,15	-0,103	-0,110
1,151	-0,100	-0,114
1,152	-0,097	-0,096
1,153	-0,095	-0,087
1,154	-0,092	-0,066
1,155	-0,090	-0,064
1,156	-0,089	-0,079
1,157	-0,087	-0,080
1,158	-0,086	-0,079
1,159	-0,084	-0,096
1,16	-0,083	-0,104
1,161	-0,083	-0,122
1,162	-0,082	-0,110
1,163	-0,081	-0,067
1,164	-0,080	-0,064
1,165	-0,080	-0,070
1,166	-0,079	-0,077
1,167	-0,079	-0,090
1,168	-0,079	-0,103
1,169	-0,079	-0,082
1,17	-0,080	-0,055
1,171	-0,080	-0,059
1,172	-0,081	-0,075
1,173	-0,083	-0,082
1,174	-0,084	-0,072
1,175	-0,086	-0,083
1,176	-0,087	-0,090
1,177	-0,089	-0,087
1,178	-0,090	-0,102
1,179	-0,091	-0,096
1,18	-0,092	-0,092
1,181	-0,092	-0,088
1,182	-0,092	-0,091
1,183	-0,092	-0,116
1,184	-0,091	-0,122
1,185	-0,089	-0,110
1,186	-0,088	-0,072
1,187	-0,086	-0,056
1,188	-0,085	-0,093
1,189	-0,084	-0,105
1,19	-0,083	-0,046
1,191	-0,082	-0,030
1,192	-0,082	-0,073
1,193	-0,083	-0,094
1,194	-0,084	-0,091
1,195	-0,086	-0,090
1,196	-0,088	-0,102
1,197	-0,090	-0,102
1,198	-0,092	-0,109
1,199	-0,095	-0,106
1,2	-0,097	-0,095
1,201	-0,099	-0,105
1,202	-0,100	-0,094
1,203	-0,101	-0,082
1,204	-0,102	-0,100
1,205	-0,102	-0,108
1,206	-0,101	-0,105
1,207	-0,101	-0,103
1,208	-0,100	-0,121
1,209	-0,099	-0,101
1,21	-0,098	-0,044
1,211	-0,098	-0,064
1,212	-0,097	-0,098
1,213	-0,097	-0,122
1,214	-0,098	-0,131
1,215	-0,099	-0,095
1,216	-0,100	-0,096
1,217	-0,102	-0,103
1,218	-0,104	-0,105
1,219	-0,106	-0,120
1,22	-0,107	-0,108
1,221	-0,108	-0,112
1,222	-0,109	-0,120
1,223	-0,109	-0,105
1,224	-0,109	-0,114
1,225	-0,108	-0,111
1,226	-0,106	-0,090
1,227	-0,104	-0,080
1,228	-0,102	-0,091
1,229	-0,099	-0,093
1,23	-0,097	-0,096
1,231	-0,095	-0,105
1,232	-0,093	-0,098
1,233	-0,093	-0,115
1,234	-0,093	-0,095
1,235	-0,094	-0,084
1,236	-0,097	-0,091
1,237	-0,100	-0,090
1,238	-0,104	-0,119
1,239	-0,109	-0,129
1,24	-0,115	-0,128
1,241	-0,121	-0,138
1,242	-0,126	-0,138
1,243	-0,131	-0,113
1,244	-0,135	-0,091
1,245	-0,138	-0,112
1,246	-0,140	-0,132
1,247	-0,140	-0,137
1,248	-0,138	-0,134
1,249	-0,135	-0,153
1,25	-0,129	-0,143
1,251	-0,123	-0,113
1,252	-0,115	-0,141
1,253	-0,105	-0,119
1,254	-0,095	-0,095
1,255	-0,085	-0,109
1,256	-0,075	-0,082
1,257	-0,066	-0,060
1,258	-0,057	-0,045
1,259	-0,049	-0,019
1,26	-0,043	-0,032
1,261	-0,039	-0,044
1,262	-0,036	-0,013
1,263	-0,034	-0,007
1,264	-0,035	-0,045
1,265	-0,037	-0,045
1,266	-0,040	-0,054
1,267	-0,044	-0,072
1,268	-0,049	-0,067
1,269	-0,054	-0,063
1,27	-0,060	-0,071
1,271	-0,065	-0,075
1,272	-0,070	-0,052
1,273	-0,074	-0,051
1,274	-0,077	-0,064
1,275	-0,080	-0,059
1,276	-0,082	-0,059
1,277	-0,083	-0,101
1,278	-0,084	-0,097
1,279	-0,084	-0,085
1,28	-0,083	-0,090
1,281	-0,083	-0,085
1,282	-0,082	-0,093
1,283	-0,080	-0,091
1,284	-0,079	-0,073
1,285	-0,077	-0,068
1,286	-0,076	-0,082
1,287	-0,074	-0,084
1,288	-0,073	-0,067
1,289	-0,070	-0,050
1,29	-0,068	-0,074
1,291	-0,065	-0,077
1,292	-0,062	-0,060
1,293	-0,058	-0,061
1,294	-0,054	-0,046
1,295	-0,050	-0,044
1,296	-0,045	-0,055
1,297	-0,040	-0,046
1,298	-0,036	-0,030
1,299	-0,032	-0,008
1,3	-0,028	-0,003
1,301	-0,025	-0,026
1,302	-0,024	-0,049
1,303	-0,023	-0,040
1,304	-0,023	-0,027
1,305	-0,025	-0,048
1,306	-0,028	-0,038
1,307	-0,032	-0,033
1,308	-0,037	-0,037
1,309	-0,043	-0,035
1,31	-0,049	-0,053
1,311	-0,055	-0,051
1,312	-0,062	-0,043
1,313	-0,068	-0,043
1,314	-0,075	-0,056
1,315	-0,080	-0,072
1,316	-0,086	-0,078
1,317	-0,090	-0,091
1,318	-0,095	-0,111
1,319	-0,099	-0,128
1,32	-0,103	-0,123
1,321	-0,107	-0,114
1,322	-0,111	-0,107
1,323	-0,116	-0,116
1,324	-0,121	-0,146
1,325	-0,126	-0,138
1,326	-0,132	-0,116
1,327	-0,138	-0,134
1,328	-0,145	-0,151
1,329	-0,151	-0,136
1,33	-0,157	-0,127
1,331	-0,162	-0,127
1,332	-0,167	-0,130
1,333	-0,171	-0,168
1,334	-0,173	-0,219
1,335	-0,173	-0,211
1,336	-0,173	-0,170
1,337	-0,170	-0,161
1,338	-0,166	-0,162
1,339	-0,161	-0,163
1,34	-0,155	-0,178
1,341	-0,148	-0,169
1,342	-0,141	-0,151
1,343	-0,134	-0,144
1,344	-0,127	-0,113
1,345	-0,122	-0,100
1,346	-0,117	-0,101
1,347	-0,113	-0,102
1,348	-0,110	-0,117
1,349	-0,109	-0,115
1,35	-0,108	-0,109
1,351	-0,109	-0,089
1,352	-0,110	-0,077
1,353	-0,111	-0,093
1,354	-0,113	-0,119
1,355	-0,115	-0,143
1,356	-0,116	-0,149
1,357	-0,116	-0,128
1,358	-0,116	-0,119
1,359	-0,116	-0,122
1,36	-0,114	-0,109
1,361	-0,113	-0,122
1,362	-0,111	-0,137
1,363	-0,110	-0,113
1,364	-0,108	-0,098
1,365	-0,108	-0,103
1,366	-0,107	-0,085
1,367	-0,108	-0,074
1,368	-0,109	-0,071
1,369	-0,111	-0,090
1,37	-0,113	-0,114
1,371	-0,115	-0,132
1,372	-0,117	-0,142
1,373	-0,118	-0,145
1,374	-0,118	-0,139
1,375	-0,116	-0,128
1,376	-0,112	-0,120
1,377	-0,106	-0,092
1,378	-0,096	-0,099
1,379	-0,084	-0,101
1,38	-0,068	-0,060
1,381	-0,049	-0,036
1,382	-0,028	-0,017
1,383	-0,003	-0,005
1,384	0,023	0,023
1,385	0,051	0,069
1,386	0,080	0,103
1,387	0,110	0,120
1,388	0,139	0,124
1,389	0,168	0,147
1,39	0,195	0,191
1,391	0,221	0,235
1,392	0,245	0,240
1,393	0,265	0,263
1,394	0,283	0,297
1,395	0,297	0,295
1,396	0,308	0,295
1,397	0,315	0,288
1,398	0,318	0,289
1,399	0,317	0,290
1,4	0,311	0,303
1,401	0,302	0,320
1,402	0,289	0,308
1,403	0,271	0,303
1,404	0,249	0,306
1,405	0,223	0,272
1,406	0,194	0,227
1,407	0,162	0,172
1,408	0,128	0,067
1,409	0,091	-0,008
1,41	0,053	0,006
1,411	0,015	0,007
1,412	-0,023	-0,040
1,413	-0,059	-0,060
1,414	-0,094	-0,069
1,415	-0,125	-0,081
1,416	-0,153	-0,110
1,417	-0,177	-0,143
1,418	-0,197	-0,173
1,419	-0,211	-0,230
1,42	-0,221	-0,259
1,421	-0,226	-0,243
1,422	-0,228	-0,234
1,423	-0,225	-0,219
1,424	-0,219	-0,215
1,425	-0,211	-0,221
1,426	-0,202	-0,212
1,427	-0,192	-0,208
1,428	-0,182	-0,193
1,429	-0,173	-0,161
1,43	-0,165	-0,142
1,431	-0,159	-0,149
1,432	-0,156	-0,148
1,433	-0,154	-0,170
1,434	-0,155	-0,177
1,435	-0,157	-0,146
1,436	-0,161	-0,148
1,437	-0,166	-0,168
1,438	-0,172	-0,174
1,439	-0,178	-0,173
1,44	-0,184	-0,160
1,441	-0,189	-0,159
1,442	-0,193	-0,211
1,443	-0,196	-0,227
1,444	-0,198	-0,205
1,445	-0,198	-0,207
1,446	-0,197	-0,202
1,447	-0,195	-0,201
1,448	-0,192	-0,202
1,449	-0,188	-0,190
1,45	-0,185	-0,177
1,451	-0,181	-0,175
1,452	-0,177	-0,172
1,453	-0,174	-0,161
1,454	-0,171	-0,160
1,455	-0,169	-0,149
1,456	-0,167	-0,140
1,457	-0,165	-0,169
1,458	-0,164	-0,199
1,459	-0,163	-0,175
1,46	-0,163	-0,166
1,461	-0,162	-0,174
1,462	-0,161	-0,152
1,463	-0,159	-0,160
1,464	-0,157	-0,162
1,465	-0,155	-0,165
1,466	-0,152	-0,164
1,467	-0,150	-0,147
1,468	-0,147	-0,146
1,469	-0,144	-0,130
1,47	-0,142	-0,130
1,471	-0,140	-0,134
1,472	-0,139	-0,132
1,473	-0,138	-0,149
1,474	-0,138	-0,147
1,475	-0,138	-0,114
1,476	-0,139	-0,120
1,477	-0,140	-0,146
1,478	-0,141	-0,144
1,479	-0,143	-0,143
1,48	-0,144	-0,142
1,481	-0,146	-0,166
1,482	-0,147	-0,192
1,483	-0,147	-0,160
1,484	-0,146	-0,143
1,485	-0,146	-0,141
1,486	-0,144	-0,116
1,487	-0,142	-0,117
1,488	-0,140	-0,132
1,489	-0,137	-0,161
1,49	-0,134	-0,148
1,491	-0,131	-0,112
1,492	-0,128	-0,113
1,493	-0,125	-0,123
1,494	-0,122	-0,133
1,495	-0,120	-0,122
1,496	-0,118	-0,108
1,497	-0,116	-0,106
1,498	-0,115	-0,113
1,499	-0,114	-0,121
1,5	-0,113	-0,128
1,501	-0,113	-0,128
1,502	-0,112	-0,114
1,503	-0,112	-0,129
1,504	-0,111	-0,128
1,505	-0,111	-0,103
1,506	-0,111	-0,096
1,507	-0,110	-0,099
1,508	-0,110	-0,100
1,509	-0,110	-0,104
1,51	-0,109	-0,108
1,511	-0,109	-0,095
1,512	-0,109	-0,098
1,513	-0,109	-0,109
1,514	-0,108	-0,118
1,515	-0,108	-0,118
1,516	-0,107	-0,115
1,517	-0,106	-0,108
1,518	-0,105	-0,112
1,519	-0,103	-0,129
1,52	-0,101	-0,097
1,521	-0,098	-0,085
1,522	-0,094	-0,109
1,523	-0,090	-0,078
1,524	-0,086	-0,080
1,525	-0,081	-0,072
1,526	-0,076	-0,032
1,527	-0,071	-0,075
1,528	-0,065	-0,093
1,529	-0,060	-0,078
1,53	-0,055	-0,069
1,531	-0,051	-0,055
1,532	-0,047	-0,041
1,533	-0,043	-0,029
1,534	-0,039	-0,028
1,535	-0,036	-0,020
1,536	-0,034	-0,012
1,537	-0,031	-0,031
1,538	-0,028	-0,065
1,539	-0,025	-0,056
1,54	-0,021	-0,042
1,541	-0,017	-0,021
1,542	-0,013	0,014
1,543	-0,007	0,017
1,544	-0,002	0,011
1,545	0,005	0,037
1,546	0,012	0,021
1,547	0,019	-0,020
1,548	0,027	-0,009
1,549	0,036	0,015
1,55	0,044	0,043
1,551	0,052	0,057
1,552	0,060	0,086
1,553	0,068	0,113
1,554	0,075	0,101
1,555	0,082	0,075
1,556	0,089	0,063
1,557	0,095	0,064
1,558	0,102	0,084
1,559	0,108	0,103
1,56	0,113	0,110
1,561	0,119	0,115
1,562	0,125	0,133
1,563	0,131	0,152
1,564	0,137	0,153
1,565	0,142	0,152
1,566	0,148	0,159
1,567	0,153	0,155
1,568	0,158	0,155
1,569	0,163	0,159
1,57	0,166	0,145
1,571	0,169	0,155
1,572	0,171	0,163
1,573	0,173	0,146
1,574	0,173	0,168
1,575	0,172	0,183
1,576	0,170	0,197
1,577	0,168	0,210
1,578	0,164	0,165
1,579	0,161	0,144
1,58	0,157	0,143
1,581	0,153	0,156
1,582	0,149	0,167
1,583	0,145	0,148
1,584	0,142	0,144
1,585	0,139	0,119
1,586	0,137	0,113
1,587	0,135	0,151
1,588	0,134	0,135
1,589	0,133	0,104
1,59	0,132	0,115
1,591	0,132	0,133
1,592	0,132	0,158
1,593	0,131	0,160
1,594	0,130	0,149
1,595	0,128	0,130
1,596	0,126	0,112
1,597	0,123	0,115
1,598	0,120	0,122
1,599	0,115	0,113
1,6	0,109	0,097
1,601	0,103	0,099
1,602	0,096	0,095
1,603	0,087	0,087
1,604	0,078	0,085
1,605	0,069	0,072
1,606	0,059	0,045
1,607	0,049	0,046
1,608	0,038	0,058
1,609	0,027	0,040
1,61	0,017	0,008
1,611	0,007	-0,011
1,612	-0,003	-0,012
1,613	-0,013	-0,017
1,614	-0,022	-0,028
1,615	-0,030	-0,026
1,616	-0,038	-0,020
1,617	-0,045	-0,025
1,618	-0,051	-0,044
1,619	-0,057	-0,055
1,62	-0,062	-0,067
1,621	-0,066	-0,086
1,622	-0,070	-0,080
1,623	-0,074	-0,076
1,624	-0,078	-0,075
1,625	-0,082	-0,075
1,626	-0,085	-0,099
1,627	-0,090	-0,081
1,628	-0,094	-0,076
1,629	-0,099	-0,112
1,63	-0,104	-0,121
1,631	-0,110	-0,113
1,632	-0,116	-0,111
1,633	-0,123	-0,128
1,634	-0,129	-0,136
1,635	-0,136	-0,124
1,636	-0,142	-0,123
1,637	-0,148	-0,137
1,638	-0,153	-0,147
1,639	-0,157	-0,152
1,64	-0,161	-0,156
1,641	-0,163	-0,175
1,642	-0,165	-0,172
1,643	-0,165	-0,170
1,644	-0,165	-0,164
1,645	-0,164	-0,161
1,646	-0,162	-0,181
1,647	-0,160	-0,175
1,648	-0,158	-0,179
1,649	-0,156	-0,166
1,65	-0,154	-0,127
1,651	-0,153	-0,130
1,652	-0,151	-0,157
1,653	-0,151	-0,153
1,654	-0,151	-0,128
1,655	-0,151	-0,126
1,656	-0,152	-0,139
1,657	-0,153	-0,149
1,658	-0,154	-0,171
1,659	-0,155	-0,173
1,66	-0,156	-0,163
1,661	-0,156	-0,177
1,662	-0,156	-0,176
1,663	-0,155	-0,159
1,664	-0,154	-0,137
1,665	-0,152	-0,134
1,666	-0,149	-0,143
1,667	-0,147	-0,153
1,668	-0,144	-0,157
1,669	-0,141	-0,140
1,67	-0,138	-0,140
1,671	-0,135	-0,132
1,672	-0,133	-0,125
1,673	-0,132	-0,125
1,674	-0,131	-0,118
1,675	-0,131	-0,123
1,676	-0,132	-0,132
1,677	-0,133	-0,108
1,678	-0,135	-0,134
1,679	-0,137	-0,193
1,68	-0,139	-0,158
1,681	-0,142	-0,134
1,682	-0,144	-0,144
1,683	-0,147	-0,148
1,684	-0,149	-0,148
1,685	-0,150	-0,148
1,686	-0,151	-0,163
1,687	-0,152	-0,147
1,688	-0,152	-0,146
1,689	-0,152	-0,153
1,69	-0,151	-0,135
1,691	-0,150	-0,133
1,692	-0,148	-0,123
1,693	-0,147	-0,141
1,694	-0,145	-0,171
1,695	-0,144	-0,167
1,696	-0,142	-0,145
1,697	-0,141	-0,130
1,698	-0,139	-0,146
1,699	-0,138	-0,153
1,7	-0,137	-0,139
1,701	-0,135	-0,137
1,702	-0,134	-0,137
1,703	-0,133	-0,124
1,704	-0,132	-0,115
1,705	-0,131	-0,131
1,706	-0,131	-0,141
1,707	-0,130	-0,126
1,708	-0,129	-0,124
1,709	-0,129	-0,132
1,71	-0,129	-0,132
1,711	-0,130	-0,132
1,712	-0,131	-0,127
1,713	-0,132	-0,117
1,714	-0,134	-0,132
1,715	-0,136	-0,144
1,716	-0,139	-0,143
1,717	-0,142	-0,163
1,718	-0,144	-0,143
1,719	-0,147	-0,125
1,72	-0,150	-0,155
1,721	-0,152	-0,158
1,722	-0,154	-0,156
1,723	-0,155	-0,158
1,724	-0,156	-0,163
1,725	-0,156	-0,171
1,726	-0,155	-0,148
1,727	-0,154	-0,128
1,728	-0,153	-0,141
1,729	-0,151	-0,145
1,73	-0,149	-0,154
1,731	-0,147	-0,156
1,732	-0,145	-0,149
1,733	-0,143	-0,144
1,734	-0,142	-0,144
1,735	-0,142	-0,151
1,736	-0,142	-0,144
1,737	-0,143	-0,144
1,738	-0,145	-0,143
1,739	-0,148	-0,143
1,74	-0,151	-0,134
1,741	-0,155	-0,133
1,742	-0,159	-0,170
1,743	-0,163	-0,196
1,744	-0,167	-0,183
1,745	-0,171	-0,171
1,746	-0,175	-0,169
1,747	-0,178	-0,174
1,748	-0,180	-0,170
1,749	-0,181	-0,163
1,75	-0,181	-0,183
1,751	-0,180	-0,181
1,752	-0,179	-0,171
1,753	-0,177	-0,175
1,754	-0,174	-0,166
1,755	-0,170	-0,183
1,756	-0,167	-0,194
1,757	-0,163	-0,166
1,758	-0,159	-0,157
1,759	-0,156	-0,146
1,76	-0,153	-0,129
1,761	-0,150	-0,153
1,762	-0,147	-0,176
1,763	-0,145	-0,168
1,764	-0,144	-0,137
1,765	-0,143	-0,115
1,766	-0,142	-0,150
1,767	-0,141	-0,137
1,768	-0,140	-0,101
1,769	-0,139	-0,128
1,77	-0,137	-0,166
1,771	-0,136	-0,173
1,772	-0,134	-0,147
1,773	-0,131	-0,117
1,774	-0,129	-0,105
1,775	-0,126	-0,117
1,776	-0,123	-0,119
1,777	-0,120	-0,114
1,778	-0,117	-0,117
1,779	-0,115	-0,123
1,78	-0,113	-0,120
1,781	-0,111	-0,128
1,782	-0,110	-0,145
1,783	-0,110	-0,117
1,784	-0,110	-0,096
1,785	-0,111	-0,109
1,786	-0,113	-0,096
1,787	-0,114	-0,087
1,788	-0,116	-0,101
1,789	-0,118	-0,111
1,79	-0,119	-0,112
1,791	-0,120	-0,111
1,792	-0,121	-0,126
1,793	-0,121	-0,155
1,794	-0,120	-0,136
1,795	-0,119	-0,115
1,796	-0,117	-0,135
1,797	-0,114	-0,130
1,798	-0,111	-0,131
1,799	-0,108	-0,108
1,8	-0,105	-0,074
1,801	-0,101	-0,093
1,802	-0,098	-0,084
1,803	-0,095	-0,065
1,804	-0,092	-0,077
1,805	-0,090	-0,078
1,806	-0,088	-0,092
1,807	-0,086	-0,104
1,808	-0,085	-0,099
1,809	-0,084	-0,112
1,81	-0,083	-0,108
1,811	-0,083	-0,089
1,812	-0,082	-0,097
1,813	-0,081	-0,072
1,814	-0,080	-0,056
1,815	-0,079	-0,065
1,816	-0,077	-0,049
1,817	-0,076	-0,059
1,818	-0,075	-0,082
1,819	-0,075	-0,076
1,82	-0,075	-0,072
1,821	-0,075	-0,080
1,822	-0,077	-0,084
1,823	-0,079	-0,090
1,824	-0,082	-0,105
1,825	-0,086	-0,116
1,826	-0,092	-0,098
1,827	-0,098	-0,089
1,828	-0,104	-0,084
1,829	-0,112	-0,081
1,83	-0,119	-0,120
1,831	-0,127	-0,135
1,832	-0,134	-0,127
1,833	-0,141	-0,143
1,834	-0,147	-0,140
1,835	-0,153	-0,139
1,836	-0,158	-0,154
1,837	-0,162	-0,153
1,838	-0,165	-0,166
1,839	-0,167	-0,185
1,84	-0,169	-0,192
1,841	-0,170	-0,197
1,842	-0,171	-0,183
1,843	-0,171	-0,188
1,844	-0,171	-0,177
1,845	-0,171	-0,141
1,846	-0,171	-0,147
1,847	-0,172	-0,150
1,848	-0,172	-0,167
1,849	-0,172	-0,189
1,85	-0,172	-0,168
1,851	-0,172	-0,158
1,852	-0,172	-0,155
1,853	-0,171	-0,151
1,854	-0,171	-0,172
1,855	-0,170	-0,191
1,856	-0,169	-0,201
1,857	-0,167	-0,186
1,858	-0,166	-0,176
1,859	-0,165	-0,175
1,86	-0,164	-0,158
1,861	-0,163	-0,143
1,862	-0,163	-0,159
1,863	-0,163	-0,184
1,864	-0,163	-0,160
1,865	-0,165	-0,155
1,866	-0,166	-0,186
1,867	-0,168	-0,159
1,868	-0,170	-0,149
1,869	-0,171	-0,150
1,87	-0,173	-0,124
1,871	-0,174	-0,174
1,872	-0,175	-0,199
1,873	-0,175	-0,175
1,874	-0,174	-0,176
1,875	-0,173	-0,205
1,876	-0,171	-0,197
1,877	-0,168	-0,172
1,878	-0,165	-0,192
1,879	-0,161	-0,167
1,88	-0,158	-0,153
1,881	-0,155	-0,154
1,882	-0,152	-0,135
1,883	-0,149	-0,132
1,884	-0,147	-0,131
1,885	-0,146	-0,128
1,886	-0,145	-0,132
1,887	-0,144	-0,141
1,888	-0,142	-0,152
1,889	-0,140	-0,142
1,89	-0,137	-0,129
1,891	-0,132	-0,128
1,892	-0,125	-0,116
1,893	-0,115	-0,119
1,894	-0,103	-0,126
1,895	-0,087	-0,118
1,896	-0,068	-0,092
1,897	-0,046	-0,060
1,898	-0,020	-0,027
1,899	0,009	0,014
1,9	0,040	0,063
1,901	0,073	0,092
1,902	0,107	0,107
1,903	0,141	0,133
1,904	0,176	0,175
1,905	0,208	0,236
1,906	0,239	0,285
1,907	0,268	0,290
1,908	0,293	0,285
1,909	0,313	0,302
1,91	0,330	0,313
1,911	0,341	0,333
1,912	0,348	0,323
1,913	0,350	0,290
1,914	0,347	0,311
1,915	0,338	0,350
1,916	0,326	0,338
1,917	0,309	0,297
1,918	0,288	0,301
1,919	0,262	0,320
1,92	0,234	0,288
1,921	0,204	0,239
1,922	0,171	0,184
1,923	0,136	0,103
1,924	0,100	0,057
1,925	0,063	0,038
1,926	0,026	0,012
1,927	-0,011	-0,013
1,928	-0,046	-0,048
1,929	-0,080	-0,082
1,93	-0,112	-0,123
1,931	-0,142	-0,152
1,932	-0,168	-0,159
1,933	-0,192	-0,180
1,934	-0,211	-0,195
1,935	-0,227	-0,206
1,936	-0,240	-0,236
1,937	-0,248	-0,234
1,938	-0,254	-0,245
1,939	-0,255	-0,271
1,94	-0,254	-0,269
1,941	-0,251	-0,274
1,942	-0,246	-0,248
1,943	-0,239	-0,250
1,944	-0,232	-0,243
1,945	-0,224	-0,207
1,946	-0,216	-0,214
1,947	-0,208	-0,200
1,948	-0,202	-0,184
1,949	-0,196	-0,195
1,95	-0,192	-0,191
1,951	-0,188	-0,189
1,952	-0,186	-0,199
1,953	-0,185	-0,189
1,954	-0,184	-0,185
1,955	-0,184	-0,187
1,956	-0,185	-0,156
1,957	-0,185	-0,164
1,958	-0,186	-0,198
1,959	-0,187	-0,207
1,96	-0,187	-0,221
1,961	-0,188	-0,192
1,962	-0,187	-0,163
1,963	-0,187	-0,186
1,964	-0,186	-0,189
1,965	-0,185	-0,176
1,966	-0,184	-0,189
1,967	-0,183	-0,178
1,968	-0,182	-0,178
1,969	-0,181	-0,185
1,97	-0,180	-0,175
1,971	-0,179	-0,190
1,972	-0,179	-0,179
1,973	-0,178	-0,165
1,974	-0,177	-0,186
1,975	-0,177	-0,171
1,976	-0,176	-0,159
1,977	-0,176	-0,174
1,978	-0,175	-0,186
1,979	-0,174	-0,175
1,98	-0,173	-0,170
1,981	-0,172	-0,185
1,982	-0,170	-0,184
1,983	-0,169	-0,199
1,984	-0,167	-0,174
1,985	-0,166	-0,150
1,986	-0,165	-0,153
1,987	-0,164	-0,147
1,988	-0,163	-0,167
1,989	-0,163	-0,163
1,99	-0,163	-0,140
1,991	-0,163	-0,141
1,992	-0,163	-0,152
1,993	-0,164	-0,156
1,994	-0,164	-0,182
1,995	-0,165	-0,190
1,996	-0,166	-0,171
1,997	-0,167	-0,173
1,998	-0,168	-0,170
1,999	-0,168	-0,184
2	-0,169	-0,194
2,001	-0,169	-0,181
2,002	-0,169	-0,167
2,003	-0,168	-0,147
2,004	-0,168	-0,142
2,005	-0,166	-0,163
2,006	-0,165	-0,159
2,007	-0,163	-0,142
2,008	-0,160	-0,155
2,009	-0,157	-0,161
2,01	-0,154	-0,142
2,011	-0,150	-0,148
2,012	-0,146	-0,158
2,013	-0,142	-0,138
2,014	-0,137	-0,152
2,015	-0,133	-0,160
2,016	-0,129	-0,155
2,017	-0,125	-0,149
2,018	-0,122	-0,115
2,019	-0,119	-0,082
2,02	-0,116	-0,093
2,021	-0,114	-0,128
2,022	-0,112	-0,125
2,023	-0,111	-0,110
2,024	-0,110	-0,104
2,025	-0,110	-0,109
2,026	-0,110	-0,092
2,027	-0,110	-0,082
2,028	-0,110	-0,107
2,029	-0,109	-0,095
2,03	-0,108	-0,112
2,031	-0,107	-0,135
2,032	-0,105	-0,128
2,033	-0,102	-0,114
2,034	-0,099	-0,087
2,035	-0,095	-0,117
2,036	-0,090	-0,134
2,037	-0,085	-0,088
2,038	-0,079	-0,044
2,039	-0,073	-0,039
2,04	-0,067	-0,048
2,041	-0,062	-0,058
2,042	-0,056	-0,065
2,043	-0,051	-0,042
2,044	-0,046	-0,039
2,045	-0,042	-0,059
2,046	-0,039	-0,051
2,047	-0,035	-0,034
2,048	-0,032	-0,037
2,049	-0,029	-0,024
2,05	-0,026	-0,022
2,051	-0,023	-0,036
2,052	-0,020	-0,024
2,053	-0,016	-0,008
2,054	-0,011	-0,008
2,055	-0,006	-0,005
2,056	-0,000	-0,012
2,057	0,006	0,008
2,058	0,013	0,024
2,059	0,020	0,015
2,06	0,027	0,024
2,061	0,035	0,025
2,062	0,042	0,053
2,063	0,049	0,058
2,064	0,056	0,060
2,065	0,063	0,072
2,066	0,069	0,057
2,067	0,074	0,066
2,068	0,080	0,077
2,069	0,085	0,086
2,07	0,089	0,098
2,071	0,094	0,090
2,072	0,098	0,098
2,073	0,103	0,112
2,074	0,107	0,100
2,075	0,112	0,115
2,076	0,117	0,114
2,077	0,122	0,102
2,078	0,127	0,129
2,079	0,132	0,129
2,08	0,136	0,143
2,081	0,141	0,147
2,082	0,145	0,140
2,083	0,148	0,158
2,084	0,151	0,158
2,085	0,153	0,156
2,086	0,155	0,145
2,087	0,155	0,152
2,088	0,156	0,169
2,089	0,155	0,158
2,09	0,155	0,156
2,091	0,154	0,146
2,092	0,154	0,131
2,093	0,153	0,138
2,094	0,153	0,156
2,095	0,153	0,170
2,096	0,153	0,160
2,097	0,153	0,154
2,098	0,154	0,153
2,099	0,154	0,156
2,1	0,155	0,163
2,101	0,155	0,163
2,102	0,155	0,170
2,103	0,154	0,147
2,104	0,152	0,144
2,105	0,150	0,132
2,106	0,146	0,109
2,107	0,142	0,137
2,108	0,137	0,140
2,109	0,130	0,142
2,11	0,124	0,133
2,111	0,117	0,128
2,112	0,109	0,129
2,113	0,101	0,114
2,114	0,093	0,101
2,115	0,085	0,076
2,116	0,078	0,081
2,117	0,071	0,073
2,118	0,063	0,053
2,119	0,057	0,046
2,12	0,050	0,025
2,121	0,043	0,024
2,122	0,037	0,021
2,123	0,030	0,013
2,124	0,024	0,032
2,125	0,017	0,045
2,126	0,010	0,035
2,127	0,003	0,029
2,128	-0,005	0,029
2,129	-0,012	0,000
2,13	-0,019	-0,047
2,131	-0,026	-0,066
2,132	-0,032	-0,064
2,133	-0,038	-0,036
2,134	-0,043	-0,021
2,135	-0,048	-0,030
2,136	-0,051	-0,036
2,137	-0,055	-0,052
2,138	-0,057	-0,080
2,139	-0,060	-0,090
2,14	-0,062	-0,065
2,141	-0,064	-0,067
2,142	-0,067	-0,067
2,143	-0,070	-0,064
2,144	-0,073	-0,066
2,145	-0,078	-0,051
2,146	-0,083	-0,083
2,147	-0,089	-0,092
2,148	-0,096	-0,074
2,149	-0,104	-0,090
2,15	-0,112	-0,111
2,151	-0,120	-0,150
2,152	-0,128	-0,158
2,153	-0,135	-0,145
2,154	-0,142	-0,153
2,155	-0,148	-0,125
2,156	-0,152	-0,121
2,157	-0,155	-0,148
2,158	-0,157	-0,162
2,159	-0,158	-0,174
2,16	-0,157	-0,170
2,161	-0,155	-0,176
2,162	-0,152	-0,167
2,163	-0,149	-0,128
2,164	-0,146	-0,123
2,165	-0,142	-0,132
2,166	-0,139	-0,142
2,167	-0,136	-0,148
2,168	-0,134	-0,111
2,169	-0,133	-0,106
2,17	-0,133	-0,130
2,171	-0,133	-0,148
2,172	-0,134	-0,155
2,173	-0,136	-0,140
2,174	-0,138	-0,161
2,175	-0,140	-0,162
2,176	-0,142	-0,131
2,177	-0,144	-0,139
2,178	-0,145	-0,139
2,179	-0,146	-0,150
2,18	-0,147	-0,131
2,181	-0,146	-0,107
2,182	-0,146	-0,157
2,183	-0,145	-0,165
2,184	-0,144	-0,142
2,185	-0,143	-0,132
2,186	-0,142	-0,125
2,187	-0,141	-0,144
2,188	-0,140	-0,162
2,189	-0,140	-0,150
2,19	-0,140	-0,156
2,191	-0,140	-0,141
2,192	-0,141	-0,125
2,193	-0,143	-0,149
2,194	-0,144	-0,144
2,195	-0,145	-0,142
2,196	-0,147	-0,142
2,197	-0,148	-0,145
2,198	-0,148	-0,145
2,199	-0,149	-0,134
2,2	-0,149	-0,135
2,201	-0,148	-0,139
2,202	-0,147	-0,153
2,203	-0,146	-0,171
2,204	-0,144	-0,183
2,205	-0,143	-0,164
2,206	-0,141	-0,115
2,207	-0,139	-0,108
2,208	-0,138	-0,143
2,209	-0,137	-0,150
2,21	-0,136	-0,135
2,211	-0,135	-0,124
2,212	-0,134	-0,124
2,213	-0,134	-0,126
2,214	-0,134	-0,136
2,215	-0,133	-0,129
2,216	-0,133	-0,132
2,217	-0,132	-0,162
2,218	-0,131	-0,133
2,219	-0,130	-0,119
2,22	-0,129	-0,137
2,221	-0,127	-0,121
2,222	-0,125	-0,116
2,223	-0,123	-0,131
2,224	-0,121	-0,133
2,225	-0,119	-0,125
2,226	-0,117	-0,127
2,227	-0,116	-0,103
2,228	-0,115	-0,103
2,229	-0,115	-0,118
2,23	-0,116	-0,092
2,231	-0,118	-0,101
2,232	-0,120	-0,124
2,233	-0,123	-0,141
2,234	-0,127	-0,165
2,235	-0,132	-0,124
2,236	-0,136	-0,106
2,237	-0,141	-0,140
2,238	-0,145	-0,139
2,239	-0,149	-0,146
2,24	-0,152	-0,164
2,241	-0,155	-0,168
2,242	-0,157	-0,178
2,243	-0,158	-0,177
2,244	-0,158	-0,158
2,245	-0,157	-0,159
2,246	-0,155	-0,148
2,247	-0,152	-0,125
2,248	-0,149	-0,120
2,249	-0,146	-0,119
2,25	-0,142	-0,133
2,251	-0,138	-0,142
2,252	-0,134	-0,158
2,253	-0,131	-0,151
2,254	-0,128	-0,145
2,255	-0,125	-0,131
2,256	-0,123	-0,122
2,257	-0,122	-0,136
2,258	-0,121	-0,120
2,259	-0,122	-0,128
2,26	-0,122	-0,111
2,261	-0,123	-0,097
2,262	-0,125	-0,126
2,263	-0,127	-0,122
2,264	-0,129	-0,114
2,265	-0,132	-0,133
2,266	-0,134	-0,155
2,267	-0,136	-0,149
2,268	-0,139	-0,143
2,269	-0,141	-0,141
2,27	-0,143	-0,132
2,271	-0,145	-0,134
2,272	-0,147	-0,137
2,273	-0,149	-0,137
2,274	-0,150	-0,157
2,275	-0,152	-0,159
2,276	-0,153	-0,163
2,277	-0,154	-0,180
2,278	-0,155	-0,157
2,279	-0,155	-0,147
2,28	-0,156	-0,138
2,281	-0,156	-0,159
2,282	-0,156	-0,187
2,283	-0,155	-0,162
2,284	-0,154	-0,146
2,285	-0,153	-0,129
2,286	-0,151	-0,134
2,287	-0,149	-0,125
2,288	-0,146	-0,113
2,289	-0,143	-0,149
2,29	-0,140	-0,160
2,291	-0,136	-0,151
2,292	-0,132	-0,158
2,293	-0,129	-0,158
2,294	-0,125	-0,153
2,295	-0,121	-0,143
2,296	-0,118	-0,098
2,297	-0,115	-0,071
2,298	-0,112	-0,101
2,299	-0,110	-0,080
2,3	-0,109	-0,064
2,301	-0,108	-0,124
2,302	-0,107	-0,150
2,303	-0,106	-0,129
2,304	-0,106	-0,103
2,305	-0,106	-0,122
2,306	-0,106	-0,110
2,307	-0,106	-0,089
2,308	-0,105	-0,104
2,309	-0,105	-0,072
2,31	-0,104	-0,089
2,311	-0,102	-0,121
2,312	-0,101	-0,122
2,313	-0,099	-0,115
2,314	-0,096	-0,104
2,315	-0,094	-0,112
2,316	-0,092	-0,062
2,317	-0,090	-0,056
2,318	-0,088	-0,085
2,319	-0,087	-0,072
2,32	-0,086	-0,105
2,321	-0,086	-0,118
2,322	-0,086	-0,096
2,323	-0,087	-0,087
2,324	-0,088	-0,063
2,325	-0,090	-0,078
2,326	-0,091	-0,114
2,327	-0,093	-0,095
2,328	-0,094	-0,081
2,329	-0,095	-0,085
2,33	-0,095	-0,092
2,331	-0,095	-0,107
2,332	-0,094	-0,112
2,333	-0,091	-0,097
2,334	-0,088	-0,077
2,335	-0,085	-0,075
2,336	-0,080	-0,073
2,337	-0,075	-0,073
2,338	-0,070	-0,073
2,339	-0,066	-0,079
2,34	-0,061	-0,065
2,341	-0,057	-0,044
2,342	-0,054	-0,062
2,343	-0,052	-0,053
2,344	-0,051	-0,041
2,345	-0,051	-0,050
2,346	-0,053	-0,053
2,347	-0,056	-0,063
2,348	-0,060	-0,071
2,349	-0,065	-0,069
2,35	-0,071	-0,063
2,351	-0,078	-0,067
2,352	-0,085	-0,095
2,353	-0,093	-0,104
2,354	-0,100	-0,089
2,355	-0,108	-0,078
2,356	-0,116	-0,087
2,357	-0,123	-0,124
2,358	-0,130	-0,163
2,359	-0,137	-0,169
2,36	-0,143	-0,150
2,361	-0,149	-0,156
2,362	-0,155	-0,168
2,363	-0,160	-0,150
2,364	-0,165	-0,152
2,365	-0,169	-0,172
2,366	-0,173	-0,171
2,367	-0,176	-0,161
2,368	-0,178	-0,158
2,369	-0,179	-0,177
2,37	-0,179	-0,185
2,371	-0,178	-0,171
2,372	-0,176	-0,162
2,373	-0,173	-0,169
2,374	-0,168	-0,189
2,375	-0,163	-0,179
2,376	-0,157	-0,175
2,377	-0,150	-0,159
2,378	-0,143	-0,138
2,379	-0,137	-0,167
2,38	-0,130	-0,145
2,381	-0,125	-0,103
2,382	-0,121	-0,089
2,383	-0,118	-0,096
2,384	-0,117	-0,100
2,385	-0,117	-0,116
2,386	-0,119	-0,129
2,387	-0,123	-0,111
2,388	-0,128	-0,127
2,389	-0,134	-0,127
2,39	-0,141	-0,141
2,391	-0,147	-0,176
2,392	-0,154	-0,198
2,393	-0,160	-0,189
2,394	-0,165	-0,175
2,395	-0,168	-0,168
2,396	-0,169	-0,148
2,397	-0,169	-0,116
2,398	-0,167	-0,120
2,399	-0,163	-0,173
2,4	-0,157	-0,168
2,401	-0,150	-0,138
2,402	-0,143	-0,143
2,403	-0,135	-0,158
2,404	-0,127	-0,145
2,405	-0,121	-0,124
2,406	-0,115	-0,122
2,407	-0,112	-0,120
2,408	-0,110	-0,117
2,409	-0,110	-0,112
2,41	-0,112	-0,097
2,411	-0,115	-0,110
2,412	-0,120	-0,126
2,413	-0,125	-0,108
2,414	-0,130	-0,129
2,415	-0,135	-0,142
2,416	-0,138	-0,120
2,417	-0,140	-0,133
2,418	-0,138	-0,139
2,419	-0,133	-0,138
2,42	-0,123	-0,128
2,421	-0,110	-0,107
2,422	-0,093	-0,102
2,423	-0,070	-0,091
2,424	-0,044	-0,045
2,425	-0,015	-0,006
2,426	0,018	0,021
2,427	0,054	0,052
2,428	0,091	0,078
2,429	0,128	0,133
2,43	0,165	0,168
2,431	0,202	0,195
2,432	0,236	0,253
2,433	0,268	0,294
2,434	0,296	0,301
2,435	0,320	0,313
2,436	0,339	0,333
2,437	0,354	0,340
2,438	0,362	0,356
2,439	0,366	0,369
2,44	0,364	0,351
2,441	0,356	0,340
2,442	0,344	0,347
2,443	0,326	0,328
2,444	0,303	0,299
2,445	0,277	0,286
2,446	0,247	0,285
2,447	0,213	0,259
2,448	0,177	0,183
2,449	0,139	0,098
2,45	0,100	0,053
2,451	0,061	0,021
2,452	0,022	0,012
2,453	-0,017	0,016
2,454	-0,053	-0,056
2,455	-0,087	-0,075
2,456	-0,119	-0,075
2,457	-0,147	-0,151
2,458	-0,171	-0,167
2,459	-0,192	-0,165
2,46	-0,208	-0,199
2,461	-0,220	-0,244
2,462	-0,229	-0,274
2,463	-0,234	-0,237
2,464	-0,236	-0,228
2,465	-0,235	-0,245
2,466	-0,231	-0,241
2,467	-0,226	-0,246
2,468	-0,220	-0,218
2,469	-0,213	-0,180
2,47	-0,206	-0,169
2,471	-0,199	-0,199
2,472	-0,193	-0,208
2,473	-0,188	-0,194
2,474	-0,184	-0,200
2,475	-0,181	-0,182
2,476	-0,179	-0,171
2,477	-0,178	-0,168
2,478	-0,177	-0,166
2,479	-0,178	-0,183
2,48	-0,179	-0,164
2,481	-0,179	-0,177
2,482	-0,180	-0,205
2,483	-0,181	-0,199
2,484	-0,182	-0,191
2,485	-0,182	-0,180
2,486	-0,181	-0,158
2,487	-0,181	-0,170
2,488	-0,179	-0,197
2,489	-0,178	-0,198
2,49	-0,176	-0,190
2,491	-0,174	-0,179
2,492	-0,172	-0,175
2,493	-0,170	-0,152
2,494	-0,168	-0,118
2,495	-0,166	-0,130
2,496	-0,164	-0,163
2,497	-0,162	-0,175
2,498	-0,160	-0,173
2,499	-0,158	-0,170
2,5	-0,156	-0,169
2,501	-0,154	-0,167
2,502	-0,151	-0,155
2,503	-0,149	-0,164
2,504	-0,147	-0,179
2,505	-0,146	-0,144
2,506	-0,144	-0,126
2,507	-0,142	-0,138
2,508	-0,141	-0,120
2,509	-0,141	-0,125
2,51	-0,140	-0,142
2,511	-0,140	-0,122
2,512	-0,141	-0,139
2,513	-0,141	-0,144
2,514	-0,142	-0,120
2,515	-0,143	-0,142
2,516	-0,144	-0,169
2,517	-0,144	-0,167
2,518	-0,144	-0,148
2,519	-0,144	-0,150
2,52	-0,143	-0,156
2,521	-0,142	-0,135
2,522	-0,140	-0,137
2,523	-0,137	-0,138
2,524	-0,134	-0,128
2,525	-0,131	-0,114
2,526	-0,127	-0,132
2,527	-0,123	-0,134
2,528	-0,120	-0,124
2,529	-0,116	-0,122
2,53	-0,113	-0,098
2,531	-0,111	-0,090
2,532	-0,109	-0,105
2,533	-0,107	-0,114
2,534	-0,107	-0,100
2,535	-0,106	-0,115
2,536	-0,107	-0,089
2,537	-0,108	-0,101
2,538	-0,108	-0,129
2,539	-0,109	-0,102
2,54	-0,110	-0,148
2,541	-0,110	-0,158
2,542	-0,110	-0,104
2,543	-0,109	-0,091
2,544	-0,108	-0,085
2,545	-0,107	-0,084
2,546	-0,104	-0,099
2,547	-0,101	-0,094
2,548	-0,098	-0,102
2,549	-0,095	-0,096
2,55	-0,091	-0,096
2,551	-0,088	-0,083
2,552	-0,084	-0,056
2,553	-0,081	-0,088
2,554	-0,078	-0,102
2,555	-0,075	-0,090
2,556	-0,073	-0,104
2,557	-0,071	-0,093
2,558	-0,069	-0,047
2,559	-0,067	-0,036
2,56	-0,065	-0,046
2,561	-0,064	-0,061
2,562	-0,062	-0,045
2,563	-0,060	-0,057
2,564	-0,058	-0,102
2,565	-0,056	-0,068
2,566	-0,053	-0,052
2,567	-0,051	-0,042
2,568	-0,048	-0,042
2,569	-0,045	-0,058
2,57	-0,042	-0,019
2,571	-0,040	-0,006
2,572	-0,037	-0,047
2,573	-0,034	-0,061
2,574	-0,031	-0,048
2,575	-0,028	-0,029
2,576	-0,026	-0,030
2,577	-0,023	-0,019
2,578	-0,020	-0,010
2,579	-0,017	-0,015
2,58	-0,013	0,004
2,581	-0,009	0,003
2,582	-0,004	-0,022
2,583	0,001	-0,011
2,584	0,007	0,010
2,585	0,013	0,004
2,586	0,020	0,005
2,587	0,028	0,035
2,588	0,036	0,059
2,589	0,045	0,051
2,59	0,053	0,056
2,591	0,062	0,064
2,592	0,071	0,058
2,593	0,080	0,068
2,594	0,088	0,086
2,595	0,097	0,102
2,596	0,104	0,112
2,597	0,111	0,105
2,598	0,118	0,108
2,599	0,124	0,131
2,6	0,129	0,138
2,601	0,134	0,145
2,602	0,138	0,151
2,603	0,142	0,148
2,604	0,145	0,145
2,605	0,148	0,136
2,606	0,151	0,125
2,607	0,153	0,125
2,608	0,156	0,146
2,609	0,158	0,162
2,61	0,160	0,173
2,611	0,162	0,172
2,612	0,165	0,181
2,613	0,167	0,189
2,614	0,168	0,171
2,615	0,170	0,175
2,616	0,172	0,177
2,617	0,173	0,168
2,618	0,175	0,169
2,619	0,175	0,168
2,62	0,176	0,172
2,621	0,176	0,161
2,622	0,176	0,153
2,623	0,176	0,166
2,624	0,175	0,168
2,625	0,174	0,193
2,626	0,173	0,204
2,627	0,172	0,169
2,628	0,170	0,160
2,629	0,168	0,162
2,63	0,166	0,168
2,631	0,164	0,183
2,632	0,161	0,186
2,633	0,159	0,175
2,634	0,156	0,154
2,635	0,153	0,140
2,636	0,150	0,138
2,637	0,146	0,135
2,638	0,142	0,124
2,639	0,138	0,113
2,64	0,133	0,120
2,641	0,128	0,116
2,642	0,122	0,121
2,643	0,116	0,135
2,644	0,109	0,124
2,645	0,102	0,137
2,646	0,094	0,129
2,647	0,086	0,108
2,648	0,077	0,075
2,649	0,069	0,039
2,65	0,060	0,058
2,651	0,051	0,048
2,652	0,043	0,007
2,653	0,034	-0,005
2,654	0,026	-0,005
2,655	0,018	0,019
2,656	0,011	0,047
2,657	0,003	0,026
2,658	-0,003	0,023
2,659	-0,010	0,039
2,66	-0,016	-0,006
2,661	-0,022	-0,050
2,662	-0,028	-0,058
2,663	-0,034	-0,053
2,664	-0,040	-0,035
2,665	-0,046	-0,051
2,666	-0,052	-0,085
2,667	-0,058	-0,074
2,668	-0,064	-0,046
2,669	-0,069	-0,044
2,67	-0,075	-0,049
2,671	-0,080	-0,067
2,672	-0,086	-0,082
2,673	-0,090	-0,080
2,674	-0,094	-0,107
2,675	-0,098	-0,121
2,676	-0,101	-0,107
2,677	-0,103	-0,119
2,678	-0,105	-0,104
2,679	-0,106	-0,098
2,68	-0,106	-0,113
2,681	-0,106	-0,102
2,682	-0,105	-0,103
2,683	-0,105	-0,105
2,684	-0,104	-0,089
2,685	-0,104	-0,104
2,686	-0,103	-0,125
2,687	-0,103	-0,109
2,688	-0,104	-0,092
2,689	-0,105	-0,087
2,69	-0,107	-0,093
2,691	-0,109	-0,092
2,692	-0,111	-0,103
2,693	-0,114	-0,125
2,694	-0,118	-0,139
2,695	-0,121	-0,155
2,696	-0,124	-0,148
2,697	-0,128	-0,120
2,698	-0,130	-0,122
2,699	-0,133	-0,122
2,7	-0,134	-0,135
2,701	-0,135	-0,145
2,702	-0,135	-0,128
2,703	-0,134	-0,118
2,704	-0,133	-0,110
2,705	-0,131	-0,121
2,706	-0,128	-0,121
2,707	-0,125	-0,113
2,708	-0,121	-0,121
2,709	-0,117	-0,133
2,71	-0,114	-0,149
2,711	-0,110	-0,150
2,712	-0,107	-0,110
2,713	-0,105	-0,098
2,714	-0,103	-0,108
2,715	-0,101	-0,104
2,716	-0,100	-0,095
2,717	-0,100	-0,058
2,718	-0,100	-0,056
2,719	-0,100	-0,087
2,72	-0,101	-0,100
2,721	-0,101	-0,110
2,722	-0,102	-0,135
2,723	-0,103	-0,143
2,724	-0,103	-0,120
2,725	-0,103	-0,105
2,726	-0,103	-0,092
2,727	-0,102	-0,088
2,728	-0,101	-0,095
2,729	-0,100	-0,091
2,73	-0,099	-0,096
2,731	-0,098	-0,082
2,732	-0,097	-0,073
2,733	-0,096	-0,117
2,734	-0,095	-0,119
2,735	-0,095	-0,092
2,736	-0,096	-0,090
2,737	-0,097	-0,103
2,738	-0,099	-0,124
2,739	-0,101	-0,107
2,74	-0,104	-0,089
2,741	-0,108	-0,101
2,742	-0,111	-0,095
2,743	-0,115	-0,110
2,744	-0,118	-0,125
2,745	-0,121	-0,123
2,746	-0,124	-0,124
2,747	-0,126	-0,120
2,748	-0,127	-0,131
2,749	-0,127	-0,144
2,75	-0,126	-0,146
2,751	-0,125	-0,108
2,752	-0,123	-0,089
2,753	-0,121	-0,101
2,754	-0,118	-0,122
2,755	-0,115	-0,131
2,756	-0,112	-0,127
2,757	-0,109	-0,144
2,758	-0,107	-0,112
2,759	-0,106	-0,089
2,76	-0,105	-0,115
2,761	-0,105	-0,101
2,762	-0,106	-0,077
2,763	-0,108	-0,088
2,764	-0,110	-0,112
2,765	-0,112	-0,122
2,766	-0,114	-0,118
2,767	-0,117	-0,114
2,768	-0,119	-0,119
2,769	-0,121	-0,123
2,77	-0,122	-0,122
2,771	-0,122	-0,140
2,772	-0,122	-0,134
2,773	-0,121	-0,112
2,774	-0,119	-0,113
2,775	-0,117	-0,118
2,776	-0,115	-0,118
2,777	-0,112	-0,111
2,778	-0,109	-0,102
2,779	-0,107	-0,099
2,78	-0,104	-0,097
2,781	-0,102	-0,096
2,782	-0,101	-0,099
2,783	-0,100	-0,103
2,784	-0,099	-0,118
2,785	-0,099	-0,118
2,786	-0,100	-0,100
2,787	-0,100	-0,097
2,788	-0,100	-0,100
2,789	-0,100	-0,095
2,79	-0,100	-0,103
2,791	-0,099	-0,095
2,792	-0,098	-0,084
2,793	-0,096	-0,084
2,794	-0,093	-0,076
2,795	-0,091	-0,086
2,796	-0,087	-0,089
2,797	-0,084	-0,104
2,798	-0,081	-0,124
2,799	-0,078	-0,094
2,8	-0,076	-0,062
2,801	-0,075	-0,074
2,802	-0,074	-0,075
2,803	-0,075	-0,072
2,804	-0,076	-0,063
2,805	-0,078	-0,038
2,806	-0,082	-0,076
2,807	-0,085	-0,099
2,808	-0,089	-0,086
2,809	-0,093	-0,105
2,81	-0,097	-0,102
2,811	-0,100	-0,113
2,812	-0,102	-0,110
2,813	-0,104	-0,091
2,814	-0,104	-0,116
2,815	-0,103	-0,115
2,816	-0,101	-0,094
2,817	-0,098	-0,080
2,818	-0,094	-0,083
2,819	-0,089	-0,094
2,82	-0,084	-0,097
2,821	-0,079	-0,095
2,822	-0,074	-0,062
2,823	-0,069	-0,044
2,824	-0,065	-0,070
2,825	-0,061	-0,069
2,826	-0,059	-0,059
2,827	-0,058	-0,044
2,828	-0,057	-0,060
2,829	-0,057	-0,081
2,83	-0,058	-0,054
2,831	-0,059	-0,052
2,832	-0,060	-0,063
2,833	-0,061	-0,059
2,834	-0,062	-0,053
2,835	-0,062	-0,062
2,836	-0,062	-0,064
2,837	-0,061	-0,061
2,838	-0,059	-0,072
2,839	-0,056	-0,070
2,84	-0,053	-0,052
2,841	-0,050	-0,035
2,842	-0,047	-0,040
2,843	-0,044	-0,048
2,844	-0,042	-0,034
2,845	-0,040	-0,030
2,846	-0,039	-0,038
2,847	-0,040	-0,067
2,848	-0,041	-0,060
2,849	-0,045	-0,024
2,85	-0,049	-0,032
2,851	-0,055	-0,049
2,852	-0,062	-0,060
2,853	-0,069	-0,075
2,854	-0,078	-0,089
2,855	-0,087	-0,086
2,856	-0,095	-0,099
2,857	-0,104	-0,122
2,858	-0,113	-0,106
2,859	-0,120	-0,115
2,86	-0,127	-0,145
2,861	-0,133	-0,128
2,862	-0,138	-0,113
2,863	-0,141	-0,127
2,864	-0,144	-0,129
2,865	-0,145	-0,145
2,866	-0,146	-0,156
2,867	-0,145	-0,155
2,868	-0,144	-0,167
2,869	-0,142	-0,171
2,87	-0,139	-0,142
2,871	-0,136	-0,111
2,872	-0,133	-0,112
2,873	-0,130	-0,120
2,874	-0,127	-0,122
2,875	-0,124	-0,121
2,876	-0,121	-0,124
2,877	-0,118	-0,127
2,878	-0,116	-0,128
2,879	-0,115	-0,125
2,88	-0,114	-0,111
2,881	-0,114	-0,106
2,882	-0,115	-0,128
2,883	-0,116	-0,127
2,884	-0,118	-0,101
2,885	-0,121	-0,103
2,886	-0,123	-0,124
2,887	-0,127	-0,130
2,888	-0,130	-0,114
2,889	-0,133	-0,121
2,89	-0,136	-0,144
2,891	-0,138	-0,148
2,892	-0,140	-0,167
2,893	-0,140	-0,150
2,894	-0,140	-0,134
2,895	-0,139	-0,145
2,896	-0,137	-0,140
2,897	-0,134	-0,139
2,898	-0,130	-0,115
2,899	-0,126	-0,083
2,9	-0,121	-0,090
2,901	-0,116	-0,101
2,902	-0,112	-0,136
2,903	-0,108	-0,144
2,904	-0,105	-0,130
2,905	-0,103	-0,128
2,906	-0,102	-0,091
2,907	-0,102	-0,097
2,908	-0,103	-0,105
2,909	-0,106	-0,101
2,91	-0,109	-0,106
2,911	-0,113	-0,100
2,912	-0,117	-0,126
2,913	-0,120	-0,105
2,914	-0,123	-0,084
2,915	-0,124	-0,099
2,916	-0,124	-0,113
2,917	-0,121	-0,162
2,918	-0,116	-0,156
2,919	-0,107	-0,120
2,92	-0,095	-0,115
2,921	-0,080	-0,089
2,922	-0,061	-0,047
2,923	-0,039	-0,022
2,924	-0,014	0,002
2,925	0,014	0,022
2,926	0,044	0,044
2,927	0,076	0,072
2,928	0,109	0,102
2,929	0,142	0,138
2,93	0,175	0,174
2,931	0,207	0,234
2,932	0,237	0,269
2,933	0,265	0,256
2,934	0,289	0,264
2,935	0,309	0,285
2,936	0,326	0,311
2,937	0,337	0,366
2,938	0,344	0,365
2,939	0,345	0,328
2,94	0,341	0,315
2,941	0,332	0,325
2,942	0,319	0,311
2,943	0,300	0,268
2,944	0,276	0,277
2,945	0,249	0,292
2,946	0,219	0,285
2,947	0,186	0,227
2,948	0,152	0,163
2,949	0,116	0,104
2,95	0,080	0,025
2,951	0,044	-0,023
2,952	0,009	-0,032
2,953	-0,024	-0,030
2,954	-0,055	-0,056
2,955	-0,082	-0,049
2,956	-0,107	-0,047
2,957	-0,129	-0,096
2,958	-0,147	-0,127
2,959	-0,162	-0,148
2,96	-0,173	-0,180
2,961	-0,182	-0,221
2,962	-0,187	-0,229
2,963	-0,191	-0,208
2,964	-0,192	-0,200
2,965	-0,192	-0,190
2,966	-0,190	-0,188
2,967	-0,188	-0,195
2,968	-0,186	-0,183
2,969	-0,183	-0,166
2,97	-0,181	-0,162
2,971	-0,179	-0,156
2,972	-0,177	-0,148
2,973	-0,175	-0,153
2,974	-0,174	-0,192
2,975	-0,173	-0,210
2,976	-0,173	-0,191
2,977	-0,172	-0,182
2,978	-0,172	-0,173
2,979	-0,171	-0,176
2,98	-0,171	-0,180
2,981	-0,170	-0,168
2,982	-0,169	-0,169
2,983	-0,168	-0,160
2,984	-0,166	-0,156
2,985	-0,165	-0,167
2,986	-0,163	-0,158
2,987	-0,162	-0,153
2,988	-0,160	-0,138
2,989	-0,159	-0,150
2,99	-0,158	-0,173
2,991	-0,157	-0,166
2,992	-0,156	-0,158
2,993	-0,156	-0,165
2,994	-0,155	-0,162
2,995	-0,155	-0,158
2,996	-0,155	-0,167
2,997	-0,155	-0,139
2,998	-0,155	-0,143
2,999	-0,155	-0,167
3	-0,155	-0,129
3,001	-0,154	-0,140
3,002	-0,153	-0,189
3,003	-0,152	-0,187
3,004	-0,150	-0,145
3,005	-0,148	-0,128
3,006	-0,146	-0,146
3,007	-0,143	-0,128
3,008	-0,140	-0,150
3,009	-0,136	-0,154
3,01	-0,133	-0,100
3,011	-0,129	-0,098
3,012	-0,126	-0,123
3,013	-0,122	-0,151
3,014	-0,119	-0,157
3,015	-0,117	-0,108
3,016	-0,115	-0,085
3,017	-0,113	-0,107
3,018	-0,112	-0,127
3,019	-0,112	-0,121
3,02	-0,113	-0,109
3,021	-0,114	-0,133
3,022	-0,116	-0,135
3,023	-0,118	-0,119
3,024	-0,121	-0,105
3,025	-0,124	-0,102
3,026	-0,127	-0,125
3,027	-0,129	-0,131
3,028	-0,131	-0,134
3,029	-0,133	-0,121
3,03	-0,133	-0,133
3,031	-0,133	-0,142
3,032	-0,131	-0,113
3,033	-0,128	-0,120
3,034	-0,125	-0,146
3,035	-0,121	-0,144
3,036	-0,116	-0,101
3,037	-0,110	-0,077
3,038	-0,104	-0,098
3,039	-0,099	-0,134
3,04	-0,093	-0,125
3,041	-0,089	-0,091
3,042	-0,085	-0,081
3,043	-0,082	-0,076
3,044	-0,080	-0,080
3,045	-0,079	-0,084
3,046	-0,079	-0,084
3,047	-0,079	-0,074
3,048	-0,080	-0,046
3,049	-0,082	-0,054
3,05	-0,083	-0,075
3,051	-0,085	-0,076
3,052	-0,086	-0,086
3,053	-0,086	-0,109
3,054	-0,085	-0,111
3,055	-0,084	-0,091
3,056	-0,082	-0,089
3,057	-0,078	-0,085
3,058	-0,074	-0,075
3,059	-0,069	-0,080
3,06	-0,064	-0,076
3,061	-0,059	-0,058
3,062	-0,054	-0,039
3,063	-0,049	-0,030
3,064	-0,045	-0,042
3,065	-0,041	-0,045
3,066	-0,038	-0,029
3,067	-0,035	-0,018
3,068	-0,034	-0,021
3,069	-0,032	-0,041
3,07	-0,031	-0,044
3,071	-0,031	-0,028
3,072	-0,030	-0,022
3,073	-0,029	-0,025
3,074	-0,028	-0,040
3,075	-0,026	-0,027
3,076	-0,023	-0,035
3,077	-0,020	-0,050
3,078	-0,016	-0,023
3,079	-0,011	-0,017
3,08	-0,006	0,006
3,081	-0,000	0,009
3,082	0,006	0,001
3,083	0,012	0,014
3,084	0,019	0,028
3,085	0,025	0,059
3,086	0,031	0,045
3,087	0,038	0,016
3,088	0,044	0,068
3,089	0,050	0,077
3,09	0,055	0,024
3,091	0,061	0,035
3,092	0,067	0,060
3,093	0,073	0,066
3,094	0,079	0,068
3,095	0,085	0,067
3,096	0,091	0,095
3,097	0,098	0,121
3,098	0,104	0,112
3,099	0,111	0,113
3,1	0,118	0,118
3,101	0,124	0,124
3,102	0,130	0,125
3,103	0,136	0,125
3,104	0,141	0,146
3,105	0,146	0,157
3,106	0,150	0,159
3,107	0,154	0,148
3,108	0,157	0,143
3,109	0,159	0,153
3,11	0,161	0,170
3,111	0,163	0,190
3,112	0,164	0,187
3,113	0,165	0,160
3,114	0,167	0,155
3,115	0,168	0,162
3,116	0,169	0,149
3,117	0,170	0,148
3,118	0,171	0,153
3,119	0,172	0,160
3,12	0,173	0,178
3,121	0,174	0,184
3,122	0,174	0,191
3,123	0,175	0,184
3,124	0,174	0,166
3,125	0,173	0,172
3,126	0,172	0,180
3,127	0,171	0,200
3,128	0,168	0,203
3,129	0,166	0,176
3,13	0,163	0,165
3,131	0,159	0,157
3,132	0,156	0,132
3,133	0,152	0,112
3,134	0,148	0,107
3,135	0,144	0,122
3,136	0,139	0,159
3,137	0,135	0,145
3,138	0,131	0,110
3,139	0,126	0,129
3,14	0,121	0,146
3,141	0,116	0,130
3,142	0,111	0,111
3,143	0,105	0,115
3,144	0,098	0,117
3,145	0,092	0,092
3,146	0,084	0,085
3,147	0,077	0,095
3,148	0,069	0,089
3,149	0,060	0,066
3,15	0,051	0,041
3,151	0,042	0,019
3,152	0,033	-0,006
3,153	0,023	0,001
3,154	0,014	0,003
3,155	0,004	-0,021
3,156	-0,005	-0,011
3,157	-0,015	0,011
3,158	-0,024	0,005
3,159	-0,032	-0,027
3,16	-0,040	-0,040
3,161	-0,048	-0,042
3,162	-0,055	-0,048
3,163	-0,061	-0,050
3,164	-0,067	-0,063
3,165	-0,072	-0,055
3,166	-0,077	-0,029
3,167	-0,081	-0,081
3,168	-0,084	-0,101
3,169	-0,087	-0,097
3,17	-0,090	-0,144
3,171	-0,092	-0,123
3,172	-0,094	-0,119
3,173	-0,096	-0,112
3,174	-0,098	-0,072
3,175	-0,101	-0,084
3,176	-0,103	-0,113
3,177	-0,106	-0,102
3,178	-0,109	-0,096
3,179	-0,112	-0,106
3,18	-0,115	-0,088
3,181	-0,118	-0,097
3,182	-0,122	-0,116
3,183	-0,125	-0,112
3,184	-0,128	-0,119
3,185	-0,131	-0,136
3,186	-0,133	-0,153
3,187	-0,135	-0,159
3,188	-0,136	-0,158
3,189	-0,136	-0,166
3,19	-0,135	-0,138
3,191	-0,134	-0,107
3,192	-0,132	-0,122
3,193	-0,130	-0,115
3,194	-0,128	-0,133
3,195	-0,125	-0,156
3,196	-0,122	-0,133
3,197	-0,120	-0,119
3,198	-0,118	-0,113
3,199	-0,116	-0,099
3,2	-0,114	-0,096
3,201	-0,113	-0,091
3,202	-0,113	-0,088
3,203	-0,112	-0,101
3,204	-0,112	-0,113
3,205	-0,112	-0,134
3,206	-0,112	-0,122
3,207	-0,111	-0,108
3,208	-0,111	-0,140
3,209	-0,110	-0,139
3,21	-0,109	-0,122
3,211	-0,107	-0,107
3,212	-0,105	-0,093
3,213	-0,103	-0,107
3,214	-0,101	-0,111
3,215	-0,099	-0,087
3,216	-0,097	-0,084
3,217	-0,095	-0,095
3,218	-0,094	-0,069
3,219	-0,094	-0,058
3,22	-0,094	-0,077
3,221	-0,095	-0,093
3,222	-0,096	-0,108
3,223	-0,098	-0,107
3,224	-0,100	-0,117
3,225	-0,103	-0,136
3,226	-0,105	-0,114
3,227	-0,107	-0,101
3,228	-0,109	-0,115
3,229	-0,110	-0,118
3,23	-0,111	-0,124
3,231	-0,111	-0,116
3,232	-0,110	-0,098
3,233	-0,109	-0,090
3,234	-0,107	-0,092
3,235	-0,105	-0,097
3,236	-0,103	-0,095
3,237	-0,100	-0,084
3,238	-0,098	-0,094
3,239	-0,096	-0,099
3,24	-0,094	-0,088
3,241	-0,093	-0,101
3,242	-0,092	-0,124
3,243	-0,092	-0,121
3,244	-0,092	-0,103
3,245	-0,093	-0,079
3,246	-0,094	-0,068
3,247	-0,095	-0,100
3,248	-0,096	-0,107
3,249	-0,098	-0,082
3,25	-0,099	-0,085
3,251	-0,099	-0,102
3,252	-0,100	-0,107
3,253	-0,100	-0,109
3,254	-0,100	-0,101
3,255	-0,100	-0,102
3,256	-0,099	-0,103
3,257	-0,099	-0,096
3,258	-0,098	-0,087
3,259	-0,098	-0,076
3,26	-0,097	-0,099
3,261	-0,097	-0,120
3,262	-0,097	-0,108
3,263	-0,098	-0,084
3,264	-0,098	-0,087
3,265	-0,099	-0,102
3,266	-0,100	-0,114
3,267	-0,101	-0,106
3,268	-0,102	-0,089
3,269	-0,103	-0,114
3,27	-0,103	-0,125
3,271	-0,104	-0,102
3,272	-0,104	-0,089
3,273	-0,105	-0,088
3,274	-0,105	-0,108
3,275	-0,105	-0,111
3,276	-0,105	-0,103
3,277	-0,106	-0,094
3,278	-0,106	-0,090
3,279	-0,106	-0,114
3,28	-0,107	-0,109
3,281	-0,107	-0,115
3,282	-0,108	-0,129
3,283	-0,109	-0,110
3,284	-0,110	-0,113
3,285	-0,110	-0,113
3,286	-0,111	-0,101
3,287	-0,111	-0,099
3,288	-0,110	-0,107
3,289	-0,110	-0,105
3,29	-0,109	-0,108
3,291	-0,108	-0,127
3,292	-0,106	-0,118
3,293	-0,104	-0,094
3,294	-0,102	-0,091
3,295	-0,101	-0,108
3,296	-0,099	-0,108
3,297	-0,098	-0,090
3,298	-0,097	-0,073
3,299	-0,097	-0,087
3,3	-0,097	-0,100
3,301	-0,098	-0,106
3,302	-0,100	-0,124
3,303	-0,102	-0,113
3,304	-0,105	-0,097
3,305	-0,108	-0,126
3,306	-0,111	-0,117
3,307	-0,115	-0,096
3,308	-0,118	-0,102
3,309	-0,120	-0,104
3,31	-0,122	-0,124
3,311	-0,124	-0,125
3,312	-0,125	-0,129
3,313	-0,125	-0,135
3,314	-0,124	-0,110
3,315	-0,122	-0,110
3,316	-0,120	-0,144
3,317	-0,117	-0,140
3,318	-0,114	-0,110
3,319	-0,111	-0,113
3,32	-0,107	-0,113
3,321	-0,104	-0,102
3,322	-0,100	-0,101
3,323	-0,097	-0,079
3,324	-0,094	-0,077
3,325	-0,092	-0,082
3,326	-0,090	-0,080
3,327	-0,088	-0,092
3,328	-0,086	-0,094
3,329	-0,085	-0,089
3,33	-0,083	-0,092
3,331	-0,081	-0,098
3,332	-0,080	-0,095
3,333	-0,078	-0,094
3,334	-0,076	-0,086
3,335	-0,074	-0,064
3,336	-0,071	-0,049
3,337	-0,069	-0,040
3,338	-0,066	-0,033
3,339	-0,064	-0,057
3,34	-0,062	-0,074
3,341	-0,060	-0,071
3,342	-0,058	-0,078
3,343	-0,058	-0,077
3,344	-0,057	-0,055
3,345	-0,057	-0,060
3,346	-0,058	-0,073
3,347	-0,060	-0,055
3,348	-0,061	-0,042
3,349	-0,063	-0,052
3,35	-0,066	-0,084
3,351	-0,068	-0,077
3,352	-0,070	-0,053
3,353	-0,072	-0,061
3,354	-0,073	-0,068
3,355	-0,074	-0,072
3,356	-0,075	-0,085
3,357	-0,075	-0,072
3,358	-0,075	-0,070
3,359	-0,074	-0,081
3,36	-0,073	-0,071
3,361	-0,071	-0,062
3,362	-0,069	-0,080
3,363	-0,068	-0,092
3,364	-0,066	-0,073
3,365	-0,064	-0,063
3,366	-0,063	-0,056
3,367	-0,061	-0,050
3,368	-0,060	-0,050
3,369	-0,059	-0,062
3,37	-0,057	-0,060
3,371	-0,056	-0,045
3,372	-0,054	-0,051
3,373	-0,052	-0,038
3,374	-0,049	-0,061
3,375	-0,046	-0,080
3,376	-0,042	-0,034
3,377	-0,039	-0,024
3,378	-0,034	-0,028
3,379	-0,030	-0,036
3,38	-0,026	-0,035
3,381	-0,022	-0,017
3,382	-0,018	-0,019
3,383	-0,015	-0,021
3,384	-0,013	-0,002
3,385	-0,012	-0,010
3,386	-0,012	-0,015
3,387	-0,014	-0,014
3,388	-0,016	-0,030
3,389	-0,020	-0,014
3,39	-0,025	-0,018
3,391	-0,032	-0,036
3,392	-0,038	-0,034
3,393	-0,046	-0,035
3,394	-0,053	-0,050
3,395	-0,061	-0,067
3,396	-0,068	-0,078
3,397	-0,075	-0,078
3,398	-0,082	-0,074
3,399	-0,087	-0,088
3,4	-0,092	-0,103
3,401	-0,097	-0,105
3,402	-0,100	-0,091
3,403	-0,103	-0,086
3,404	-0,106	-0,103
3,405	-0,108	-0,117
3,406	-0,110	-0,125
3,407	-0,112	-0,117
3,408	-0,114	-0,107
3,409	-0,116	-0,121
3,41	-0,118	-0,116
3,411	-0,120	-0,098
3,412	-0,122	-0,108
3,413	-0,123	-0,134
3,414	-0,125	-0,145
3,415	-0,126	-0,136
3,416	-0,126	-0,137
3,417	-0,126	-0,122
3,418	-0,125	-0,108
3,419	-0,124	-0,116
3,42	-0,122	-0,120
3,421	-0,120	-0,103
3,422	-0,118	-0,096
3,423	-0,115	-0,120
3,424	-0,113	-0,131
3,425	-0,111	-0,131
3,426	-0,109	-0,114
3,427	-0,108	-0,117
3,428	-0,108	-0,142
3,429	-0,108	-0,133
3,43	-0,109	-0,113
3,431	-0,111	-0,092
3,432	-0,113	-0,069
3,433	-0,115	-0,069
3,434	-0,117	-0,105
3,435	-0,119	-0,117
3,436	-0,120	-0,108
3,437	-0,121	-0,142
3,438	-0,121	-0,157
3,439	-0,120	-0,124
3,44	-0,118	-0,113
3,441	-0,116	-0,112
3,442	-0,113	-0,114
3,443	-0,110	-0,133
3,444	-0,106	-0,125
3,445	-0,102	-0,096
3,446	-0,099	-0,090
3,447	-0,096	-0,102
3,448	-0,093	-0,112
3,449	-0,092	-0,100
3,45	-0,091	-0,072
3,451	-0,091	-0,054
3,452	-0,091	-0,068
3,453	-0,092	-0,074
3,454	-0,092	-0,076
3,455	-0,092	-0,111
3,456	-0,091	-0,093
3,457	-0,089	-0,093
3,458	-0,084	-0,104
3,459	-0,077	-0,062
3,46	-0,068	-0,086
3,461	-0,055	-0,092
3,462	-0,040	-0,060
3,463	-0,021	-0,050
3,464	0,001	0,003
3,465	0,026	0,039
3,466	0,053	0,066
3,467	0,083	0,119
3,468	0,115	0,136
3,469	0,147	0,159
3,47	0,180	0,193
3,471	0,213	0,203
3,472	0,245	0,246
3,473	0,275	0,300
3,474	0,303	0,303
3,475	0,328	0,305
3,476	0,350	0,347
3,477	0,368	0,360
3,478	0,382	0,360
3,479	0,391	0,380
3,48	0,395	0,382
3,481	0,395	0,379
3,482	0,389	0,382
3,483	0,378	0,362
3,484	0,362	0,352
3,485	0,342	0,356
3,486	0,318	0,343
3,487	0,289	0,341
3,488	0,258	0,315
3,489	0,223	0,252
3,49	0,186	0,183
3,491	0,148	0,120
3,492	0,109	0,086
3,493	0,070	0,034
3,494	0,032	-0,001
3,495	-0,004	-0,010
3,496	-0,039	-0,050
3,497	-0,070	-0,073
3,498	-0,099	-0,093
3,499	-0,124	-0,122
3,5	-0,145	-0,136
3,501	-0,163	-0,149
3,502	-0,176	-0,165
3,503	-0,186	-0,186
3,504	-0,191	-0,187
3,505	-0,194	-0,177
3,506	-0,193	-0,194
3,507	-0,190	-0,189
3,508	-0,186	-0,185
3,509	-0,179	-0,187
3,51	-0,171	-0,170
3,511	-0,163	-0,164
3,512	-0,155	-0,157
3,513	-0,148	-0,143
3,514	-0,141	-0,138
3,515	-0,134	-0,152
3,516	-0,130	-0,145
3,517	-0,126	-0,130
3,518	-0,125	-0,143
3,519	-0,124	-0,131
3,52	-0,125	-0,105
3,521	-0,126	-0,106
3,522	-0,129	-0,118
3,523	-0,132	-0,133
3,524	-0,136	-0,132
3,525	-0,139	-0,107
3,526	-0,143	-0,133
3,527	-0,146	-0,176
3,528	-0,149	-0,160
3,529	-0,150	-0,152
3,53	-0,151	-0,163
3,531	-0,151	-0,171
3,532	-0,150	-0,165
3,533	-0,148	-0,141
3,534	-0,145	-0,126
3,535	-0,141	-0,126
3,536	-0,137	-0,119
3,537	-0,133	-0,122
3,538	-0,129	-0,113
3,539	-0,125	-0,124
3,54	-0,122	-0,158
3,541	-0,119	-0,142
3,542	-0,117	-0,127
3,543	-0,116	-0,135
3,544	-0,117	-0,132
3,545	-0,118	-0,111
3,546	-0,120	-0,093
3,547	-0,123	-0,103
3,548	-0,127	-0,121
3,549	-0,131	-0,113
3,55	-0,135	-0,119
3,551	-0,139	-0,133
3,552	-0,143	-0,147
3,553	-0,145	-0,161
3,554	-0,148	-0,145
3,555	-0,148	-0,150
3,556	-0,148	-0,165
3,557	-0,147	-0,177
3,558	-0,144	-0,174
3,559	-0,140	-0,144
3,56	-0,136	-0,127
3,561	-0,130	-0,118
3,562	-0,124	-0,113
3,563	-0,117	-0,124
3,564	-0,111	-0,097
3,565	-0,105	-0,070
3,566	-0,099	-0,088
3,567	-0,094	-0,083
3,568	-0,090	-0,075
3,569	-0,087	-0,093
3,57	-0,084	-0,096
3,571	-0,083	-0,089
3,572	-0,083	-0,106
3,573	-0,084	-0,113
3,574	-0,085	-0,096
3,575	-0,088	-0,104
3,576	-0,090	-0,094
3,577	-0,093	-0,085
3,578	-0,096	-0,099
3,579	-0,099	-0,082
3,58	-0,101	-0,083
3,581	-0,103	-0,092
3,582	-0,105	-0,086
3,583	-0,105	-0,093
3,584	-0,105	-0,100
3,585	-0,104	-0,105
3,586	-0,103	-0,101
3,587	-0,100	-0,105
3,588	-0,096	-0,108
3,589	-0,092	-0,103
3,59	-0,087	-0,113
3,591	-0,082	-0,103
3,592	-0,076	-0,076
3,593	-0,070	-0,068
3,594	-0,064	-0,065
3,595	-0,057	-0,052
3,596	-0,052	-0,043
3,597	-0,046	-0,035
3,598	-0,041	-0,028
3,599	-0,036	-0,013
3,6	-0,032	-0,027
3,601	-0,029	-0,039
3,602	-0,026	-0,032
3,603	-0,023	-0,025
3,604	-0,022	-0,016
3,605	-0,020	-0,015
3,606	-0,020	-0,021
3,607	-0,019	-0,037
3,608	-0,018	-0,037
3,609	-0,017	-0,034
3,61	-0,016	-0,033
3,611	-0,014	-0,011
3,612	-0,012	0,011
3,613	-0,009	0,006
3,614	-0,006	-0,000
3,615	-0,002	0,022
3,616	0,002	0,019
3,617	0,007	0,015
3,618	0,012	0,013
3,619	0,017	-0,010
3,62	0,022	0,002
3,621	0,028	0,009
3,622	0,033	0,015
3,623	0,038	0,040
3,624	0,043	0,046
3,625	0,048	0,061
3,626	0,052	0,071
3,627	0,057	0,075
3,628	0,061	0,063
3,629	0,065	0,049
3,63	0,070	0,098
3,631	0,075	0,074
3,632	0,080	0,048
3,633	0,086	0,085
3,634	0,092	0,088
3,635	0,099	0,080
3,636	0,107	0,091
3,637	0,115	0,143
3,638	0,124	0,154
3,639	0,134	0,141
3,64	0,143	0,145
3,641	0,153	0,136
3,642	0,162	0,141
3,643	0,172	0,168
3,644	0,180	0,186
3,645	0,188	0,192
3,646	0,196	0,204
3,647	0,202	0,209
3,648	0,208	0,214
3,649	0,213	0,213
3,65	0,216	0,203
3,651	0,219	0,221
3,652	0,220	0,220
3,653	0,221	0,215
3,654	0,222	0,228
3,655	0,221	0,215
3,656	0,221	0,213
3,657	0,220	0,224
3,658	0,219	0,211
3,659	0,217	0,212
3,66	0,216	0,229
3,661	0,215	0,235
3,662	0,215	0,230
3,663	0,214	0,203
3,664	0,214	0,205
3,665	0,215	0,206
3,666	0,215	0,203
3,667	0,216	0,223
3,668	0,217	0,221
3,669	0,217	0,212
3,67	0,218	0,221
3,671	0,219	0,224
3,672	0,219	0,214
3,673	0,218	0,217
3,674	0,217	0,215
3,675	0,215	0,225
3,676	0,213	0,223
3,677	0,209	0,200
3,678	0,204	0,205
3,679	0,198	0,187
3,68	0,191	0,180
3,681	0,184	0,203
3,682	0,175	0,198
3,683	0,166	0,157
3,684	0,156	0,127
3,685	0,146	0,138
3,686	0,136	0,144
3,687	0,126	0,134
3,688	0,117	0,120
3,689	0,108	0,113
3,69	0,100	0,107
3,691	0,092	0,089
3,692	0,086	0,085
3,693	0,079	0,083
3,694	0,074	0,073
3,695	0,070	0,072
3,696	0,065	0,054
3,697	0,061	0,050
3,698	0,057	0,064
3,699	0,053	0,063
3,7	0,048	0,051
3,701	0,042	0,037
3,702	0,036	0,020
3,703	0,030	0,022
3,704	0,022	0,022
3,705	0,014	0,013
3,706	0,006	0,024
3,707	-0,003	0,022
3,708	-0,012	-0,005
3,709	-0,020	-0,042
3,71	-0,028	-0,040
3,711	-0,036	-0,037
3,712	-0,042	-0,034
3,713	-0,047	-0,036
3,714	-0,052	-0,070
3,715	-0,054	-0,078
3,716	-0,056	-0,047
3,717	-0,057	-0,028
3,718	-0,057	-0,035
3,719	-0,056	-0,050
3,72	-0,055	-0,069
3,721	-0,054	-0,069
3,722	-0,053	-0,074
3,723	-0,053	-0,083
3,724	-0,053	-0,062
3,725	-0,054	-0,040
3,726	-0,057	-0,036
3,727	-0,060	-0,038
3,728	-0,064	-0,056
3,729	-0,069	-0,067
3,73	-0,075	-0,065
3,731	-0,081	-0,086
3,732	-0,087	-0,083
3,733	-0,093	-0,077
3,734	-0,098	-0,108
3,735	-0,103	-0,119
3,736	-0,106	-0,126
3,737	-0,109	-0,125
3,738	-0,110	-0,127
3,739	-0,110	-0,124
3,74	-0,108	-0,089
3,741	-0,105	-0,070
3,742	-0,102	-0,090
3,743	-0,098	-0,110
3,744	-0,093	-0,100
3,745	-0,088	-0,084
3,746	-0,083	-0,061
3,747	-0,078	-0,065
3,748	-0,074	-0,083
3,749	-0,070	-0,075
3,75	-0,068	-0,073
3,751	-0,066	-0,075
3,752	-0,065	-0,076
3,753	-0,065	-0,072
3,754	-0,066	-0,062
3,755	-0,067	-0,057
3,756	-0,069	-0,064
3,757	-0,071	-0,074
3,758	-0,074	-0,080
3,759	-0,076	-0,096
3,76	-0,078	-0,091
3,761	-0,080	-0,073
3,762	-0,082	-0,061
3,763	-0,083	-0,065
3,764	-0,084	-0,075
3,765	-0,084	-0,080
3,766	-0,084	-0,094
3,767	-0,083	-0,088
3,768	-0,082	-0,085
3,769	-0,080	-0,086
3,77	-0,078	-0,075
3,771	-0,076	-0,075
3,772	-0,074	-0,075
3,773	-0,073	-0,089
3,774	-0,071	-0,089
3,775	-0,070	-0,063
3,776	-0,069	-0,071
3,777	-0,068	-0,062
3,778	-0,068	-0,022
3,779	-0,069	-0,065
3,78	-0,070	-0,099
3,781	-0,071	-0,071
3,782	-0,073	-0,072
3,783	-0,075	-0,079
3,784	-0,077	-0,086
3,785	-0,079	-0,090
3,786	-0,081	-0,088
3,787	-0,083	-0,079
3,788	-0,085	-0,051
3,789	-0,087	-0,071
3,79	-0,088	-0,093
3,791	-0,088	-0,080
3,792	-0,088	-0,091
3,793	-0,087	-0,109
3,794	-0,085	-0,107
3,795	-0,083	-0,086
3,796	-0,081	-0,086
3,797	-0,078	-0,079
3,798	-0,075	-0,051
3,799	-0,072	-0,053
3,8	-0,069	-0,060
3,801	-0,066	-0,070
3,802	-0,064	-0,089
3,803	-0,062	-0,081
3,804	-0,061	-0,067
3,805	-0,060	-0,045
3,806	-0,061	-0,039
3,807	-0,062	-0,046
3,808	-0,063	-0,048
3,809	-0,065	-0,072
3,81	-0,067	-0,072
3,811	-0,069	-0,088
3,812	-0,071	-0,090
3,813	-0,074	-0,064
3,814	-0,075	-0,087
3,815	-0,077	-0,099
3,816	-0,078	-0,067
3,817	-0,078	-0,049
3,818	-0,078	-0,075
3,819	-0,077	-0,071
3,82	-0,076	-0,060
3,821	-0,074	-0,080
3,822	-0,072	-0,085
3,823	-0,070	-0,075
3,824	-0,068	-0,061
3,825	-0,066	-0,063
3,826	-0,064	-0,085
3,827	-0,063	-0,071
3,828	-0,062	-0,069
3,829	-0,061	-0,063
3,83	-0,061	-0,028
3,831	-0,062	-0,039
3,832	-0,062	-0,059
3,833	-0,064	-0,058
3,834	-0,066	-0,080
3,835	-0,068	-0,100
3,836	-0,070	-0,084
3,837	-0,073	-0,076
3,838	-0,075	-0,080
3,839	-0,078	-0,068
3,84	-0,080	-0,065
3,841	-0,083	-0,071
3,842	-0,085	-0,068
3,843	-0,087	-0,083
3,844	-0,089	-0,099
3,845	-0,091	-0,105
3,846	-0,092	-0,102
3,847	-0,093	-0,099
3,848	-0,093	-0,092
3,849	-0,093	-0,086
3,85	-0,092	-0,081
3,851	-0,091	-0,084
3,852	-0,090	-0,099
3,853	-0,087	-0,102
3,854	-0,085	-0,082
3,855	-0,081	-0,065
3,856	-0,078	-0,070
3,857	-0,074	-0,071
3,858	-0,069	-0,079
3,859	-0,065	-0,088
3,86	-0,060	-0,074
3,861	-0,056	-0,055
3,862	-0,052	-0,038
3,863	-0,049	-0,037
3,864	-0,046	-0,046
3,865	-0,044	-0,022
3,866	-0,043	-0,020
3,867	-0,042	-0,059
3,868	-0,042	-0,069
3,869	-0,043	-0,049
3,87	-0,045	-0,035
3,871	-0,047	-0,043
3,872	-0,049	-0,048
3,873	-0,051	-0,063
3,874	-0,053	-0,055
3,875	-0,055	-0,055
3,876	-0,056	-0,075
3,877	-0,057	-0,046
3,878	-0,057	-0,062
3,879	-0,056	-0,049
3,88	-0,055	-0,035
3,881	-0,053	-0,074
3,882	-0,050	-0,052
3,883	-0,047	-0,022
3,884	-0,044	-0,011
3,885	-0,041	-0,029
3,886	-0,038	-0,055
3,887	-0,036	-0,053
3,888	-0,034	-0,055
3,889	-0,033	-0,056
3,89	-0,033	-0,036
3,891	-0,034	-0,038
3,892	-0,036	-0,058
3,893	-0,038	-0,037
3,894	-0,041	-0,020
3,895	-0,044	-0,031
3,896	-0,047	-0,042
3,897	-0,050	-0,035
3,898	-0,053	-0,038
3,899	-0,054	-0,047
3,9	-0,054	-0,020
3,901	-0,053	-0,046
3,902	-0,051	-0,078
3,903	-0,047	-0,061
3,904	-0,042	-0,081
3,905	-0,035	-0,068
3,906	-0,028	-0,031
3,907	-0,019	-0,045
3,908	-0,010	-0,007
3,909	-0,000	0,030
3,91	0,009	0,044
3,911	0,018	0,052
3,912	0,025	0,012
3,913	0,032	0,031
3,914	0,037	0,056
3,915	0,039	0,020
3,916	0,040	0,032
3,917	0,039	0,065
3,918	0,036	0,040
3,919	0,030	0,010
3,92	0,023	0,007
3,921	0,015	-0,002
3,922	0,005	-0,023
3,923	-0,006	-0,011
3,924	-0,017	0,004
3,925	-0,028	-0,022
3,926	-0,039	-0,029
3,927	-0,050	-0,030
3,928	-0,059	-0,048
3,929	-0,068	-0,080
3,93	-0,075	-0,100
3,931	-0,081	-0,071
3,932	-0,086	-0,067
3,933	-0,089	-0,095
3,934	-0,091	-0,083
3,935	-0,093	-0,090
3,936	-0,093	-0,085
3,937	-0,092	-0,073
3,938	-0,091	-0,108
3,939	-0,090	-0,110
3,94	-0,088	-0,096
3,941	-0,087	-0,108
3,942	-0,085	-0,112
3,943	-0,084	-0,081
3,944	-0,082	-0,075
3,945	-0,081	-0,085
3,946	-0,080	-0,058
3,947	-0,080	-0,047
3,948	-0,079	-0,054
3,949	-0,079	-0,054
3,95	-0,078	-0,069
3,951	-0,078	-0,105
3,952	-0,078	-0,124
3,953	-0,078	-0,103
3,954	-0,078	-0,072
3,955	-0,078	-0,062
3,956	-0,078	-0,071
3,957	-0,079	-0,059
3,958	-0,079	-0,061
3,959	-0,080	-0,116
3,96	-0,080	-0,122
3,961	-0,081	-0,095
3,962	-0,082	-0,079
3,963	-0,082	-0,064
3,964	-0,083	-0,062
3,965	-0,084	-0,047
3,966	-0,084	-0,066
3,967	-0,084	-0,101
3,968	-0,083	-0,079
3,969	-0,083	-0,075
3,97	-0,081	-0,108
3,971	-0,080	-0,106
3,972	-0,078	-0,073
3,973	-0,077	-0,047
3,974	-0,075	-0,075
3,975	-0,073	-0,104
3,976	-0,072	-0,088
3,977	-0,071	-0,080
3,978	-0,070	-0,065
3,979	-0,070	-0,048
3,98	-0,070	-0,063
3,981	-0,071	-0,072
3,982	-0,072	-0,065
3,983	-0,072	-0,060
3,984	-0,072	-0,057
3,985	-0,072	-0,069
3,986	-0,070	-0,094
3,987	-0,067	-0,085
3,988	-0,062	-0,073
3,989	-0,054	-0,057
3,99	-0,044	-0,018
3,991	-0,030	-0,019
3,992	-0,013	-0,040
3,993	0,007	0,009
3,994	0,031	0,053
3,995	0,058	0,062
3,996	0,087	0,093
3,997	0,119	0,114
3,998	0,153	0,143
3,999	0,188	0,180
4	0,224	0,207
4,001	0,259	0,235
4,002	0,294	0,294
4,003	0,326	0,354
4,004	0,356	0,378
4,005	0,382	0,388
4,006	0,405	0,443
4,007	0,423	0,425
4,008	0,436	0,399
4,009	0,444	0,434
4,01	0,446	0,425
4,011	0,443	0,423
4,012	0,435	0,429
4,013	0,422	0,428
4,014	0,403	0,410
4,015	0,379	0,390
4,016	0,352	0,375
4,017	0,321	0,357
4,018	0,286	0,332
4,019	0,249	0,272
4,02	0,211	0,172
4,021	0,171	0,088
4,022	0,131	0,064
4,023	0,091	0,045
4,024	0,053	0,060
4,025	0,016	0,060
4,026	-0,018	-0,004
4,027	-0,050	-0,030
4,028	-0,078	-0,029
4,029	-0,102	-0,049
4,03	-0,123	-0,086
4,031	-0,139	-0,116
4,032	-0,152	-0,157
4,033	-0,161	-0,211
4,034	-0,166	-0,203
4,035	-0,168	-0,210
4,036	-0,167	-0,229
4,037	-0,164	-0,208
4,038	-0,160	-0,180
4,039	-0,154	-0,121
4,04	-0,147	-0,098
4,041	-0,140	-0,093
4,042	-0,134	-0,095
4,043	-0,128	-0,125
4,044	-0,123	-0,121
4,045	-0,118	-0,117
4,046	-0,115	-0,115
4,047	-0,112	-0,111
4,048	-0,111	-0,112
4,049	-0,110	-0,112
4,05	-0,110	-0,116
4,051	-0,109	-0,131
4,052	-0,109	-0,141
4,053	-0,109	-0,112
4,054	-0,109	-0,122
4,055	-0,109	-0,127
4,056	-0,108	-0,101
4,057	-0,107	-0,093
4,058	-0,105	-0,087
4,059	-0,104	-0,099
4,06	-0,102	-0,093
4,061	-0,100	-0,066
4,062	-0,099	-0,089
4,063	-0,097	-0,104
4,064	-0,096	-0,100
4,065	-0,096	-0,107
4,066	-0,095	-0,104
4,067	-0,095	-0,109
4,068	-0,095	-0,102
4,069	-0,096	-0,087
4,07	-0,096	-0,081
4,071	-0,096	-0,104
4,072	-0,096	-0,124
4,073	-0,096	-0,101
4,074	-0,096	-0,082
4,075	-0,095	-0,076
4,076	-0,094	-0,095
4,077	-0,093	-0,106
4,078	-0,091	-0,108
4,079	-0,090	-0,099
4,08	-0,088	-0,070
4,081	-0,086	-0,058
4,082	-0,085	-0,075
4,083	-0,083	-0,077
4,084	-0,082	-0,076
4,085	-0,081	-0,112
4,086	-0,080	-0,091
4,087	-0,079	-0,074
4,088	-0,078	-0,082
4,089	-0,077	-0,077
4,09	-0,076	-0,071
4,091	-0,074	-0,068
4,092	-0,072	-0,076
4,093	-0,069	-0,074
4,094	-0,067	-0,063
4,095	-0,064	-0,058
4,096	-0,061	-0,067
4,097	-0,057	-0,066
4,098	-0,054	-0,057
4,099	-0,051	-0,056
4,1	-0,049	-0,042
4,101	-0,047	-0,025
4,102	-0,046	-0,052
4,103	-0,046	-0,048
4,104	-0,047	-0,044
4,105	-0,048	-0,057
4,106	-0,050	-0,035
4,107	-0,052	-0,042
4,108	-0,055	-0,075
4,109	-0,057	-0,075
4,11	-0,059	-0,027
4,111	-0,061	-0,048
4,112	-0,063	-0,094
4,113	-0,063	-0,066
4,114	-0,062	-0,078
4,115	-0,061	-0,071
4,116	-0,058	-0,041
4,117	-0,054	-0,066
4,118	-0,050	-0,036
4,119	-0,045	-0,010
4,12	-0,040	-0,033
4,121	-0,035	-0,029
4,122	-0,029	-0,047
4,123	-0,024	-0,043
4,124	-0,020	-0,019
4,125	-0,016	-0,036
4,126	-0,012	-0,031
4,127	-0,010	-0,014
4,128	-0,008	0,004
4,129	-0,006	0,021
4,13	-0,005	0,032
4,131	-0,004	0,026
4,132	-0,003	-0,014
4,133	-0,002	-0,008
4,134	-0,001	-0,000
4,135	0,000	-0,049
4,136	0,002	-0,056
4,137	0,005	-0,030
4,138	0,007	0,009
4,139	0,011	0,051
4,14	0,014	0,084
4,141	0,018	0,066
4,142	0,022	0,006
4,143	0,026	0,005
4,144	0,030	0,022
4,145	0,033	0,014
4,146	0,037	0,037
4,147	0,040	0,044
4,148	0,044	0,043
4,149	0,047	0,040
4,15	0,051	0,022
4,151	0,055	0,042
4,152	0,059	0,083
4,153	0,064	0,090
4,154	0,070	0,069
4,155	0,076	0,080
4,156	0,082	0,088
4,157	0,090	0,097
4,158	0,098	0,097
4,159	0,106	0,083
4,16	0,115	0,098
4,161	0,124	0,120
4,162	0,133	0,131
4,163	0,141	0,156
4,164	0,150	0,177
4,165	0,157	0,159
4,166	0,165	0,167
4,167	0,171	0,171
4,168	0,177	0,157
4,169	0,183	0,171
4,17	0,188	0,182
4,171	0,192	0,182
4,172	0,196	0,204
4,173	0,200	0,223
4,174	0,204	0,200
4,175	0,208	0,203
4,176	0,211	0,228
4,177	0,215	0,223
4,178	0,218	0,218
4,179	0,221	0,210
4,18	0,224	0,210
4,181	0,226	0,230
4,182	0,228	0,236
4,183	0,230	0,233
4,184	0,230	0,239
4,185	0,231	0,235
4,186	0,230	0,203
4,187	0,229	0,206
4,188	0,228	0,224
4,189	0,227	0,219
4,19	0,225	0,233
4,191	0,223	0,235
4,192	0,222	0,239
4,193	0,221	0,265
4,194	0,220	0,241
4,195	0,220	0,203
4,196	0,220	0,212
4,197	0,221	0,218
4,198	0,222	0,203
4,199	0,223	0,212
4,2	0,224	0,200
4,201	0,224	0,196
4,202	0,224	0,230
4,203	0,223	0,236
4,204	0,221	0,220
4,205	0,218	0,228
4,206	0,214	0,248
4,207	0,209	0,221
4,208	0,203	0,203
4,209	0,197	0,189
4,21	0,189	0,185
4,211	0,182	0,193
4,212	0,174	0,165
4,213	0,167	0,136
4,214	0,160	0,160
4,215	0,154	0,180
4,216	0,148	0,158
4,217	0,143	0,121
4,218	0,139	0,116
4,219	0,135	0,141
4,22	0,131	0,151
4,221	0,128	0,137
4,222	0,124	0,125
4,223	0,119	0,120
4,224	0,114	0,100
4,225	0,107	0,097
4,226	0,100	0,094
4,227	0,091	0,083
4,228	0,080	0,082
4,229	0,069	0,091
4,23	0,057	0,068
4,231	0,045	0,048
4,232	0,032	0,055
4,233	0,019	0,014
4,234	0,008	-0,016
4,235	-0,002	-0,026
4,236	-0,011	-0,022
4,237	-0,019	0,025
4,238	-0,024	0,005
4,239	-0,027	-0,053
4,24	-0,029	-0,048
4,241	-0,029	-0,027
4,242	-0,028	-0,030
4,243	-0,026	-0,035
4,244	-0,023	-0,040
4,245	-0,020	-0,023
4,246	-0,017	-0,003
4,247	-0,015	-0,009
4,248	-0,014	-0,011
4,249	-0,014	-0,014
4,25	-0,015	-0,013
4,251	-0,017	0,010
4,252	-0,020	0,004
4,253	-0,024	-0,025
4,254	-0,029	-0,037
4,255	-0,033	-0,053
4,256	-0,038	-0,053
4,257	-0,042	-0,050
4,258	-0,045	-0,041
4,259	-0,048	-0,050
4,26	-0,049	-0,071
4,261	-0,050	-0,053
4,262	-0,050	-0,040
4,263	-0,050	-0,043
4,264	-0,049	-0,034
4,265	-0,047	-0,029
4,266	-0,046	-0,047
4,267	-0,045	-0,057
4,268	-0,044	-0,043
4,269	-0,044	-0,048
4,27	-0,045	-0,050
4,271	-0,046	-0,050
4,272	-0,048	-0,056
4,273	-0,050	-0,055
4,274	-0,053	-0,040
4,275	-0,055	-0,032
4,276	-0,058	-0,027
4,277	-0,060	-0,041
4,278	-0,061	-0,095
4,279	-0,062	-0,087
4,28	-0,061	-0,077
4,281	-0,060	-0,092
4,282	-0,058	-0,065
4,283	-0,056	-0,051
4,284	-0,053	-0,046
4,285	-0,050	-0,040
4,286	-0,047	-0,033
4,287	-0,044	-0,010
4,288	-0,042	-0,027
4,289	-0,040	-0,046
4,29	-0,039	-0,028
4,291	-0,040	-0,042
4,292	-0,041	-0,084
4,293	-0,042	-0,080
4,294	-0,045	-0,027
4,295	-0,047	-0,012
4,296	-0,050	-0,036
4,297	-0,052	-0,055
4,298	-0,054	-0,073
4,299	-0,056	-0,067
4,3	-0,056	-0,048
4,301	-0,056	-0,051
4,302	-0,055	-0,069
4,303	-0,052	-0,068
4,304	-0,049	-0,060
4,305	-0,046	-0,037
4,306	-0,042	-0,019
4,307	-0,038	-0,029
4,308	-0,034	-0,023
4,309	-0,031	-0,012
4,31	-0,028	-0,041
4,311	-0,026	-0,050
4,312	-0,025	-0,014
4,313	-0,024	-0,015
4,314	-0,025	-0,036
4,315	-0,026	-0,027
4,316	-0,028	-0,029
4,317	-0,031	-0,041
4,318	-0,034	-0,046
4,319	-0,037	-0,043
4,32	-0,040	-0,023
4,321	-0,043	-0,036
4,322	-0,046	-0,023
4,323	-0,048	-0,052
4,324	-0,050	-0,065
4,325	-0,051	-0,037
4,326	-0,052	-0,077
4,327	-0,052	-0,072
4,328	-0,052	-0,056
4,329	-0,052	-0,061
4,33	-0,051	-0,053
4,331	-0,050	-0,030
4,332	-0,050	-0,006
4,333	-0,049	-0,015
4,334	-0,047	-0,065
4,335	-0,046	-0,055
4,336	-0,045	-0,029
4,337	-0,044	-0,063
4,338	-0,043	-0,068
4,339	-0,042	-0,051
4,34	-0,041	-0,039
4,341	-0,040	-0,055
4,342	-0,039	-0,045
4,343	-0,038	-0,035
4,344	-0,037	-0,049
4,345	-0,037	-0,030
4,346	-0,037	-0,029
4,347	-0,037	-0,034
4,348	-0,037	-0,025
4,349	-0,038	-0,034
4,35	-0,039	-0,040
4,351	-0,040	-0,003
4,352	-0,042	-0,008
4,353	-0,043	-0,058
4,354	-0,044	-0,060
4,355	-0,045	-0,061
4,356	-0,045	-0,070
4,357	-0,046	-0,066
4,358	-0,045	-0,057
4,359	-0,044	-0,052
4,36	-0,043	-0,043
4,361	-0,041	-0,026
4,362	-0,040	-0,012
4,363	-0,037	-0,026
4,364	-0,035	-0,048
4,365	-0,033	-0,043
4,366	-0,031	-0,028
4,367	-0,029	-0,006
4,368	-0,028	-0,018
4,369	-0,027	-0,050
4,37	-0,027	-0,031
4,371	-0,027	-0,013
4,372	-0,028	-0,023
4,373	-0,029	-0,035
4,374	-0,030	-0,052
4,375	-0,031	-0,034
4,376	-0,033	-0,026
4,377	-0,035	-0,028
4,378	-0,036	-0,023
4,379	-0,037	-0,046
4,38	-0,038	-0,044
4,381	-0,039	-0,037
4,382	-0,039	-0,049
4,383	-0,039	-0,039
4,384	-0,038	-0,044
4,385	-0,037	-0,031
4,386	-0,036	-0,018
4,387	-0,034	-0,028
4,388	-0,032	-0,031
4,389	-0,030	-0,050
4,39	-0,028	-0,048
4,391	-0,026	-0,028
4,392	-0,023	-0,024
4,393	-0,021	-0,011
4,394	-0,018	0,003
4,395	-0,016	0,009
4,396	-0,013	-0,004
4,397	-0,011	-0,000
4,398	-0,009	0,002
4,399	-0,007	-0,021
4,4	-0,006	-0,014
4,401	-0,005	-0,036
4,402	-0,004	-0,053
4,403	-0,004	-0,026
4,404	-0,005	-0,002
4,405	-0,005	-0,019
4,406	-0,006	-0,015
4,407	-0,008	0,050
4,408	-0,009	0,034
4,409	-0,010	-0,004
4,41	-0,011	-0,013
4,411	-0,012	0,011
4,412	-0,013	0,031
4,413	-0,012	-0,023
4,414	-0,012	-0,040
4,415	-0,011	-0,027
4,416	-0,009	-0,036
4,417	-0,007	-0,032
4,418	-0,005	-0,013
4,419	-0,003	-0,009
4,42	-0,000	-0,015
4,421	0,002	0,002
4,422	0,004	0,017
4,423	0,005	-0,015
4,424	0,006	0,005
4,425	0,007	0,050
4,426	0,007	0,050
4,427	0,007	0,018
4,428	0,007	0,004
4,429	0,006	0,018
4,43	0,006	-0,005
4,431	0,006	-0,002
4,432	0,007	0,010
4,433	0,009	-0,011
4,434	0,011	-0,010
4,435	0,014	-0,007
4,436	0,018	-0,010
4,437	0,022	0,032
4,438	0,027	0,064
4,439	0,031	0,044
4,44	0,036	0,028
4,441	0,040	0,036
4,442	0,042	0,053
4,443	0,044	0,043
4,444	0,044	0,030
4,445	0,043	0,031
4,446	0,040	0,048
4,447	0,035	0,067
4,448	0,028	0,029
4,449	0,020	0,012
4,45	0,012	0,016
4,451	0,002	0,009
4,452	-0,008	-0,010
4,453	-0,017	-0,036
4,454	-0,026	-0,041
4,455	-0,034	-0,042
4,456	-0,041	-0,033
4,457	-0,046	-0,041
4,458	-0,050	-0,031
4,459	-0,053	-0,035
4,46	-0,055	-0,065
4,461	-0,055	-0,057
4,462	-0,054	-0,070
4,463	-0,053	-0,085
4,464	-0,051	-0,049
4,465	-0,050	-0,044
4,466	-0,048	-0,057
4,467	-0,046	-0,030
4,468	-0,045	-0,025
4,469	-0,045	-0,043
4,47	-0,044	-0,051
4,471	-0,044	-0,036
4,472	-0,044	-0,021
4,473	-0,045	-0,041
4,474	-0,045	-0,050
4,475	-0,044	-0,038
4,476	-0,044	-0,054
4,477	-0,043	-0,052
4,478	-0,043	-0,054
4,479	-0,042	-0,070
4,48	-0,041	-0,048
4,481	-0,040	-0,039
4,482	-0,040	-0,045
4,483	-0,040	-0,036
4,484	-0,041	-0,030
4,485	-0,042	-0,043
4,486	-0,044	-0,038
4,487	-0,047	-0,030
4,488	-0,050	-0,035
4,489	-0,053	-0,033
4,49	-0,057	-0,065
4,491	-0,059	-0,072
4,492	-0,062	-0,054
4,493	-0,063	-0,068
4,494	-0,062	-0,077
4,495	-0,061	-0,050
4,496	-0,058	-0,041
4,497	-0,053	-0,064
4,498	-0,048	-0,054
4,499	-0,041	-0,036
4,5	-0,034	-0,060
4,501	-0,028	-0,075
4,502	-0,021	-0,047
4,503	-0,016	-0,007
4,504	-0,012	0,020
4,505	-0,009	0,020
4,506	-0,009	0,010
4,507	-0,011	0,009
4,508	-0,015	0,001
4,509	-0,021	-0,027
4,51	-0,028	-0,041
4,511	-0,035	-0,029
4,512	-0,043	-0,035
4,513	-0,049	-0,064
4,514	-0,054	-0,072
4,515	-0,057	-0,065
4,516	-0,056	-0,061
4,517	-0,051	-0,036
4,518	-0,042	-0,033
4,519	-0,028	-0,056
4,52	-0,009	-0,035
4,521	0,014	-0,003
4,522	0,041	0,036
4,523	0,072	0,083
4,524	0,105	0,118
4,525	0,141	0,150
4,526	0,178	0,211
4,527	0,215	0,250
4,528	0,251	0,239
4,529	0,285	0,284
4,53	0,317	0,341
4,531	0,345	0,337
4,532	0,369	0,359
4,533	0,389	0,417
4,534	0,403	0,391
4,535	0,412	0,350
4,536	0,417	0,385
4,537	0,416	0,406
4,538	0,410	0,383
4,539	0,399	0,383
4,54	0,384	0,392
4,541	0,365	0,380
4,542	0,342	0,355
4,543	0,317	0,352
4,544	0,288	0,375
4,545	0,257	0,327
4,546	0,225	0,232
4,547	0,193	0,158
4,548	0,159	0,115
4,549	0,125	0,068
4,55	0,093	0,018
4,551	0,061	0,028
4,552	0,031	0,038
4,553	0,003	-0,002
4,554	-0,023	0,005
4,555	-0,046	0,025
4,556	-0,066	-0,019
4,557	-0,084	-0,057
4,558	-0,098	-0,103
4,559	-0,109	-0,138
4,56	-0,118	-0,151
4,561	-0,124	-0,150
4,562	-0,128	-0,119
4,563	-0,130	-0,110
4,564	-0,130	-0,159
4,565	-0,129	-0,169
4,566	-0,126	-0,110
4,567	-0,124	-0,101
4,568	-0,120	-0,109
4,569	-0,116	-0,094
4,57	-0,112	-0,099
4,571	-0,108	-0,113
4,572	-0,104	-0,109
4,573	-0,100	-0,099
4,574	-0,096	-0,099
4,575	-0,091	-0,101
4,576	-0,087	-0,093
4,577	-0,083	-0,082
4,578	-0,079	-0,076
4,579	-0,074	-0,073
4,58	-0,070	-0,079
4,581	-0,066	-0,074
4,582	-0,062	-0,062
4,583	-0,059	-0,069
4,584	-0,056	-0,066
4,585	-0,053	-0,037
4,586	-0,051	-0,045
4,587	-0,050	-0,040
4,588	-0,049	-0,032
4,589	-0,050	-0,058
4,59	-0,050	-0,039
4,591	-0,051	-0,042
4,592	-0,053	-0,064
4,593	-0,054	-0,065
4,594	-0,056	-0,068
4,595	-0,057	-0,053
4,596	-0,059	-0,053
4,597	-0,060	-0,060
4,598	-0,061	-0,054
4,599	-0,061	-0,070
4,6	-0,061	-0,072
4,601	-0,061	-0,073
4,602	-0,060	-0,072
4,603	-0,058	-0,044
4,604	-0,057	-0,047
4,605	-0,055	-0,068
4,606	-0,053	-0,056
4,607	-0,051	-0,043
4,608	-0,049	-0,048
4,609	-0,047	-0,045
4,61	-0,045	-0,017
4,611	-0,043	-0,007
4,612	-0,041	-0,013
4,613	-0,039	-0,038
4,614	-0,037	-0,070
4,615	-0,035	-0,070
4,616	-0,034	-0,083
4,617	-0,032	-0,071
4,618	-0,031	-0,025
4,619	-0,030	-0,005
4,62	-0,029	-0,002
4,621	-0,028	-0,018
4,622	-0,028	-0,026
4,623	-0,028	-0,027
4,624	-0,029	-0,020
4,625	-0,029	-0,001
4,626	-0,030	-0,033
4,627	-0,031	-0,057
4,628	-0,032	-0,038
4,629	-0,032	-0,034
4,63	-0,033	-0,033
4,631	-0,033	-0,022
4,632	-0,033	-0,013
4,633	-0,032	-0,015
4,634	-0,031	-0,030
4,635	-0,028	-0,052
4,636	-0,026	-0,058
4,637	-0,022	-0,043
4,638	-0,019	-0,031
4,639	-0,015	-0,004
4,64	-0,010	0,007
4,641	-0,006	0,009
4,642	-0,002	0,000
4,643	0,002	-0,016
4,644	0,006	0,015
4,645	0,009	0,022
4,646	0,012	-0,002
4,647	0,014	0,016
4,648	0,016	0,041
4,649	0,017	0,026
4,65	0,017	0,034
4,651	0,017	0,025
4,652	0,017	-0,005
4,653	0,017	-0,007
4,654	0,017	-0,002
4,655	0,016	0,009
4,656	0,016	0,010
4,657	0,015	0,017
4,658	0,015	0,020
4,659	0,014	0,038
4,66	0,014	0,020
4,661	0,014	-0,013
4,662	0,014	-0,011
4,663	0,014	-0,004
4,664	0,014	0,033
4,665	0,015	0,050
4,666	0,016	0,056
4,667	0,017	0,049
4,668	0,019	0,018
4,669	0,022	0,001
4,67	0,026	-0,012
4,671	0,030	0,019
4,672	0,035	0,053
4,673	0,042	0,034
4,674	0,048	0,047
4,675	0,056	0,045
4,676	0,064	0,028
4,677	0,072	0,065
4,678	0,080	0,077
4,679	0,088	0,107
4,68	0,095	0,120
4,681	0,102	0,099
4,682	0,108	0,118
4,683	0,113	0,122
4,684	0,118	0,128
4,685	0,121	0,144
4,686	0,124	0,123
4,687	0,126	0,114
4,688	0,128	0,126
4,689	0,131	0,130
4,69	0,133	0,137
4,691	0,136	0,115
4,692	0,140	0,111
4,693	0,145	0,130
4,694	0,150	0,136
4,695	0,158	0,164
4,696	0,166	0,181
4,697	0,175	0,183
4,698	0,185	0,199
4,699	0,195	0,216
4,7	0,206	0,219
4,701	0,216	0,214
4,702	0,225	0,215
4,703	0,234	0,220
4,704	0,242	0,244
4,705	0,248	0,265
4,706	0,252	0,261
4,707	0,255	0,239
4,708	0,257	0,222
4,709	0,257	0,242
4,71	0,256	0,264
4,711	0,255	0,263
4,712	0,253	0,257
4,713	0,251	0,280
4,714	0,249	0,264
4,715	0,247	0,236
4,716	0,246	0,230
4,717	0,246	0,239
4,718	0,247	0,260
4,719	0,249	0,229
4,72	0,251	0,237
4,721	0,254	0,268
4,722	0,257	0,271
4,723	0,260	0,274
4,724	0,263	0,255
4,725	0,265	0,264
4,726	0,267	0,273
4,727	0,267	0,262
4,728	0,266	0,268
4,729	0,263	0,263
4,73	0,259	0,260
4,731	0,254	0,257
4,732	0,247	0,234
4,733	0,240	0,219
4,734	0,231	0,220
4,735	0,223	0,233
4,736	0,213	0,232
4,737	0,204	0,218
4,738	0,195	0,206
4,739	0,187	0,176
4,74	0,179	0,160
4,741	0,172	0,177
4,742	0,165	0,176
4,743	0,160	0,160
4,744	0,155	0,155
4,745	0,150	0,142
4,746	0,146	0,149
4,747	0,143	0,152
4,748	0,139	0,122
4,749	0,135	0,112
4,75	0,131	0,136
4,751	0,127	0,133
4,752	0,122	0,124
4,753	0,116	0,131
4,754	0,110	0,126
4,755	0,103	0,115
4,756	0,095	0,095
4,757	0,087	0,080
4,758	0,078	0,068
4,759	0,069	0,064
4,76	0,060	0,053
4,761	0,051	0,028
4,762	0,042	0,030
4,763	0,033	0,037
4,764	0,024	0,042
4,765	0,016	0,025
4,766	0,009	-0,004
4,767	0,002	0,003
4,768	-0,004	0,000
4,769	-0,009	-0,007
4,77	-0,014	0,004
4,771	-0,019	0,008
4,772	-0,023	-0,014
4,773	-0,027	-0,027
4,774	-0,030	-0,028
4,775	-0,034	-0,054
4,776	-0,038	-0,079
4,777	-0,042	-0,052
4,778	-0,046	-0,042
4,779	-0,050	-0,072
4,78	-0,055	-0,054
4,781	-0,059	-0,062
4,782	-0,064	-0,069
4,783	-0,068	-0,057
4,784	-0,072	-0,058
4,785	-0,075	-0,040
4,786	-0,077	-0,054
4,787	-0,079	-0,063
4,788	-0,080	-0,072
4,789	-0,079	-0,073
4,79	-0,078	-0,081
4,791	-0,075	-0,130
4,792	-0,072	-0,125
4,793	-0,068	-0,080
4,794	-0,064	-0,043
4,795	-0,060	-0,037
4,796	-0,055	-0,039
4,797	-0,051	-0,047
4,798	-0,048	-0,051
4,799	-0,045	-0,046
4,8	-0,042	-0,054
4,801	-0,041	-0,026
4,802	-0,040	-0,034
4,803	-0,041	-0,060
4,804	-0,041	-0,055
4,805	-0,043	-0,052
4,806	-0,044	-0,043
4,807	-0,046	-0,038
4,808	-0,048	-0,011
4,809	-0,049	-0,006
4,81	-0,050	-0,043
4,811	-0,050	-0,052
4,812	-0,050	-0,061
4,813	-0,050	-0,062
4,814	-0,048	-0,077
4,815	-0,047	-0,088
4,816	-0,045	-0,073
4,817	-0,044	-0,062
4,818	-0,042	-0,026
4,819	-0,041	-0,022
4,82	-0,041	-0,030
4,821	-0,041	-0,030
4,822	-0,041	-0,015
4,823	-0,042	-0,009
4,824	-0,043	-0,042
4,825	-0,045	-0,051
4,826	-0,047	-0,048
4,827	-0,049	-0,046
4,828	-0,051	-0,048
4,829	-0,052	-0,062
4,83	-0,052	-0,064
4,831	-0,052	-0,064
4,832	-0,052	-0,068
4,833	-0,050	-0,053
4,834	-0,048	-0,061
4,835	-0,045	-0,061
4,836	-0,042	-0,041
4,837	-0,039	-0,021
4,838	-0,036	-0,022
4,839	-0,033	-0,041
4,84	-0,031	-0,028
4,841	-0,030	-0,020
4,842	-0,030	-0,023
4,843	-0,030	-0,005
4,844	-0,032	-0,010
4,845	-0,034	-0,033
4,846	-0,037	-0,047
4,847	-0,040	-0,055
4,848	-0,044	-0,062
4,849	-0,047	-0,065
4,85	-0,050	-0,062
4,851	-0,053	-0,063
4,852	-0,055	-0,044
4,853	-0,057	-0,041
4,854	-0,058	-0,052
4,855	-0,057	-0,050
4,856	-0,057	-0,073
4,857	-0,056	-0,073
4,858	-0,054	-0,050
4,859	-0,052	-0,060
4,86	-0,050	-0,052
4,861	-0,049	-0,031
4,862	-0,048	-0,017
4,863	-0,047	-0,025
4,864	-0,047	-0,053
4,865	-0,048	-0,060
4,866	-0,049	-0,052
4,867	-0,050	-0,042
4,868	-0,052	-0,055
4,869	-0,054	-0,072
4,87	-0,056	-0,048
4,871	-0,058	-0,079
4,872	-0,060	-0,113
4,873	-0,062	-0,079
4,874	-0,063	-0,047
4,875	-0,063	-0,029
4,876	-0,063	-0,050
4,877	-0,063	-0,056
4,878	-0,063	-0,036
4,879	-0,062	-0,048
4,88	-0,062	-0,072
4,881	-0,061	-0,066
4,882	-0,061	-0,058
4,883	-0,061	-0,065
4,884	-0,061	-0,075
4,885	-0,061	-0,084
4,886	-0,062	-0,064
4,887	-0,062	-0,065
4,888	-0,063	-0,076
4,889	-0,063	-0,047
4,89	-0,063	-0,048
4,891	-0,063	-0,065
4,892	-0,062	-0,066
4,893	-0,061	-0,074
4,894	-0,060	-0,056
4,895	-0,058	-0,031
4,896	-0,056	-0,040
4,897	-0,053	-0,057
4,898	-0,051	-0,059
4,899	-0,049	-0,045
4,9	-0,047	-0,057
4,901	-0,045	-0,072
4,902	-0,044	-0,055
4,903	-0,043	-0,040
4,904	-0,043	-0,036
4,905	-0,043	-0,039
4,906	-0,043	-0,035
4,907	-0,044	-0,048
4,908	-0,044	-0,043
4,909	-0,045	-0,028
4,91	-0,046	-0,042
4,911	-0,046	-0,027
4,912	-0,046	-0,020
4,913	-0,046	-0,069
4,914	-0,045	-0,089
4,915	-0,045	-0,052
4,916	-0,044	-0,046
4,917	-0,043	-0,054
4,918	-0,042	-0,052
4,919	-0,041	-0,035
4,92	-0,040	-0,029
4,921	-0,040	-0,041
4,922	-0,041	-0,034
4,923	-0,042	-0,014
4,924	-0,044	-0,015
4,925	-0,046	-0,047
4,926	-0,048	-0,064
4,927	-0,050	-0,058
4,928	-0,052	-0,050
4,929	-0,054	-0,059
4,93	-0,055	-0,076
4,931	-0,056	-0,068
4,932	-0,056	-0,066
4,933	-0,055	-0,050
4,934	-0,053	-0,036
4,935	-0,050	-0,055
4,936	-0,046	-0,046
4,937	-0,042	-0,034
4,938	-0,037	-0,035
4,939	-0,032	-0,029
4,94	-0,027	-0,021
4,941	-0,023	-0,012
4,942	-0,019	-0,013
4,943	-0,016	-0,018
4,944	-0,015	-0,030
4,945	-0,014	-0,031
4,946	-0,014	-0,004
4,947	-0,016	-0,018
4,948	-0,018	-0,028
4,949	-0,021	-0,019
4,95	-0,024	-0,024
4,951	-0,028	-0,010
4,952	-0,031	-0,041
4,953	-0,034	-0,023
4,954	-0,035	0,005
4,955	-0,036	-0,063
4,956	-0,036	-0,063
4,957	-0,035	-0,039
4,958	-0,032	-0,046
4,959	-0,029	-0,034
4,96	-0,024	-0,027
4,961	-0,019	-0,005
4,962	-0,014	-0,001
4,963	-0,009	-0,014
4,964	-0,004	0,003
4,965	0,000	0,006
4,966	0,004	0,010
4,967	0,006	0,022
4,968	0,007	0,030
4,969	0,007	0,021
4,97	0,005	-0,012
4,971	0,002	-0,043
4,972	-0,002	-0,051
4,973	-0,007	-0,020
4,974	-0,014	-0,011
4,975	-0,021	-0,004
4,976	-0,028	-0,009
4,977	-0,036	-0,031
4,978	-0,043	-0,036
4,979	-0,051	-0,031
4,98	-0,058	-0,035
4,981	-0,065	-0,067
4,982	-0,072	-0,076
4,983	-0,077	-0,088
4,984	-0,083	-0,100
4,985	-0,087	-0,087
4,986	-0,091	-0,074
4,987	-0,094	-0,088
4,988	-0,097	-0,102
4,989	-0,099	-0,110
4,99	-0,100	-0,131
4,991	-0,101	-0,122
4,992	-0,101	-0,108
4,993	-0,100	-0,105
4,994	-0,099	-0,078
4,995	-0,097	-0,067
4,996	-0,095	-0,075
4,997	-0,092	-0,071
4,998	-0,089	-0,088
4,999	-0,086	-0,099
5	-0,083	-0,090
5,001	-0,081	-0,081
5,002	-0,079	-0,075
5,003	-0,077	-0,073
5,004	-0,076	-0,079
5,005	-0,076	-0,089
5,006	-0,077	-0,096
5,007	-0,079	-0,106
5,008	-0,082	-0,100
5,009	-0,085	-0,080
5,01	-0,089	-0,057
5,011	-0,093	-0,069
5,012	-0,098	-0,097
5,013	-0,102	-0,095
5,014	-0,105	-0,111
5,015	-0,108	-0,124
5,016	-0,110	-0,103
5,017	-0,111	-0,098
5,018	-0,110	-0,105
5,019	-0,109	-0,108
5,02	-0,106	-0,122
5,021	-0,102	-0,094
5,022	-0,098	-0,078
5,023	-0,093	-0,104
5,024	-0,088	-0,103
5,025	-0,083	-0,106
5,026	-0,079	-0,087
5,027	-0,075	-0,068
5,028	-0,073	-0,088
5,029	-0,072	-0,078
5,03	-0,072	-0,064
5,031	-0,073	-0,065
5,032	-0,076	-0,066
5,033	-0,079	-0,060
5,034	-0,082	-0,070
5,035	-0,086	-0,087
5,036	-0,089	-0,068
5,037	-0,092	-0,078
5,038	-0,092	-0,102
5,039	-0,091	-0,098
5,04	-0,087	-0,112
5,041	-0,081	-0,093
5,042	-0,071	-0,072
5,043	-0,058	-0,081
5,044	-0,042	-0,058
5,045	-0,023	-0,023
5,046	-0,000	0,012
5,047	0,025	0,038
5,048	0,052	0,049
5,049	0,082	0,084
5,05	0,112	0,122
5,051	0,144	0,168
5,052	0,175	0,186
5,053	0,206	0,192
5,054	0,235	0,232
5,055	0,263	0,273
5,056	0,288	0,290
5,057	0,310	0,308
5,058	0,329	0,327
5,059	0,343	0,334
5,06	0,354	0,355
5,061	0,360	0,349
5,062	0,361	0,338
5,063	0,357	0,346
5,064	0,348	0,334
5,065	0,335	0,326
5,066	0,316	0,319
5,067	0,294	0,297
5,068	0,267	0,294
5,069	0,237	0,283
5,07	0,204	0,243
5,071	0,169	0,174
5,072	0,132	0,114
5,073	0,093	0,077
5,074	0,055	0,030
5,075	0,017	-0,002
5,076	-0,019	-0,038
5,077	-0,053	-0,066
5,078	-0,085	-0,063
5,079	-0,114	-0,093
5,08	-0,139	-0,149
5,081	-0,160	-0,158
5,082	-0,177	-0,159
5,083	-0,190	-0,210
5,084	-0,199	-0,221
5,085	-0,205	-0,194
5,086	-0,207	-0,185
5,087	-0,207	-0,189
5,088	-0,204	-0,210
5,089	-0,199	-0,197
5,09	-0,193	-0,198
5,091	-0,186	-0,224
5,092	-0,178	-0,197
5,093	-0,171	-0,153
5,094	-0,164	-0,134
5,095	-0,158	-0,138
5,096	-0,152	-0,144
5,097	-0,148	-0,146
5,098	-0,145	-0,149
5,099	-0,142	-0,158
5,1	-0,141	-0,160
5,101	-0,140	-0,141
5,102	-0,140	-0,148
5,103	-0,140	-0,149
5,104	-0,141	-0,141
5,105	-0,142	-0,143
5,106	-0,143	-0,147
5,107	-0,144	-0,162
5,108	-0,145	-0,136
5,109	-0,146	-0,110
5,11	-0,147	-0,105
5,111	-0,147	-0,124
5,112	-0,147	-0,159
5,113	-0,147	-0,161
5,114	-0,147	-0,171
5,115	-0,147	-0,174
5,116	-0,146	-0,151
5,117	-0,146	-0,151
5,118	-0,145	-0,157
5,119	-0,145	-0,128
5,12	-0,144	-0,118
5,121	-0,144	-0,147
5,122	-0,143	-0,163
5,123	-0,143	-0,164
5,124	-0,142	-0,140
5,125	-0,141	-0,111
5,126	-0,141	-0,129
5,127	-0,140	-0,143
5,128	-0,140	-0,130
5,129	-0,139	-0,139
5,13	-0,139	-0,139
5,131	-0,138	-0,134
5,132	-0,137	-0,152
5,133	-0,137	-0,145
5,134	-0,136	-0,135
5,135	-0,135	-0,131
5,136	-0,135	-0,128
5,137	-0,134	-0,151
5,138	-0,133	-0,138
5,139	-0,133	-0,119
5,14	-0,132	-0,135
5,141	-0,131	-0,152
5,142	-0,130	-0,135
5,143	-0,130	-0,113
5,144	-0,129	-0,123
5,145	-0,129	-0,113
5,146	-0,128	-0,119
5,147	-0,128	-0,128
5,148	-0,128	-0,104
5,149	-0,128	-0,127
5,15	-0,128	-0,165
5,151	-0,127	-0,150
5,152	-0,127	-0,139
5,153	-0,126	-0,118
5,154	-0,125	-0,106
5,155	-0,124	-0,121
5,156	-0,123	-0,132
5,157	-0,121	-0,122
5,158	-0,119	-0,111
5,159	-0,117	-0,116
5,16	-0,115	-0,120
5,161	-0,113	-0,112
5,162	-0,111	-0,100
5,163	-0,110	-0,093
5,164	-0,108	-0,101
5,165	-0,107	-0,127
5,166	-0,107	-0,122
5,167	-0,107	-0,120
5,168	-0,108	-0,120
5,169	-0,109	-0,116
5,17	-0,111	-0,106
5,171	-0,112	-0,093
5,172	-0,114	-0,100
5,173	-0,116	-0,102
5,174	-0,118	-0,101
5,175	-0,119	-0,118
5,176	-0,120	-0,140
5,177	-0,120	-0,130
5,178	-0,118	-0,122
5,179	-0,116	-0,126
5,18	-0,113	-0,123
5,181	-0,109	-0,116
5,182	-0,104	-0,106
5,183	-0,098	-0,095
5,184	-0,092	-0,071
5,185	-0,085	-0,063
5,186	-0,078	-0,079
5,187	-0,072	-0,080
5,188	-0,065	-0,070
5,189	-0,059	-0,052
5,19	-0,055	-0,055
5,191	-0,051	-0,069
5,192	-0,047	-0,064
5,193	-0,045	-0,025
5,194	-0,044	-0,011
5,195	-0,043	-0,060
5,196	-0,042	-0,070
5,197	-0,042	-0,054
5,198	-0,042	-0,046
5,199	-0,042	-0,046
5,2	-0,041	-0,031
5,201	-0,039	0,011
5,202	-0,036	-0,003
5,203	-0,033	-0,045
5,204	-0,027	-0,058
5,205	-0,021	-0,048
5,206	-0,014	-0,021
5,207	-0,006	-0,005
5,208	0,004	0,000
5,209	0,014	0,010
5,21	0,024	0,035
5,211	0,034	0,051
5,212	0,044	0,047
5,213	0,054	0,035
5,214	0,064	0,058
5,215	0,072	0,108
5,216	0,080	0,096
5,217	0,087	0,079
5,218	0,093	0,090
5,219	0,098	0,089
5,22	0,102	0,089
5,221	0,105	0,088
5,222	0,108	0,097
5,223	0,111	0,113
5,224	0,113	0,117
5,225	0,116	0,112
5,226	0,118	0,126
5,227	0,121	0,130
5,228	0,125	0,128
5,229	0,128	0,151
5,23	0,132	0,143
5,231	0,137	0,128
5,232	0,141	0,141
5,233	0,146	0,142
5,234	0,150	0,133
5,235	0,154	0,145
5,236	0,158	0,163
5,237	0,161	0,166
5,238	0,164	0,156
5,239	0,166	0,156
5,24	0,166	0,163
5,241	0,166	0,166
5,242	0,165	0,166
5,243	0,163	0,180
5,244	0,161	0,176
5,245	0,158	0,159
5,246	0,154	0,152
5,247	0,151	0,149
5,248	0,147	0,161
5,249	0,143	0,137
5,25	0,139	0,117
5,251	0,135	0,135
5,252	0,131	0,136
5,253	0,128	0,124
5,254	0,125	0,120
5,255	0,121	0,122
5,256	0,118	0,121
5,257	0,115	0,120
5,258	0,111	0,116
5,259	0,106	0,103
5,26	0,101	0,092
5,261	0,096	0,093
5,262	0,090	0,093
5,263	0,082	0,089
5,264	0,075	0,068
5,265	0,066	0,065
5,266	0,058	0,078
5,267	0,049	0,051
5,268	0,039	0,035
5,269	0,030	0,038
5,27	0,021	0,021
5,271	0,013	0,007
5,272	0,004	-0,010
5,273	-0,003	-0,038
5,274	-0,010	-0,011
5,275	-0,016	0,002
5,276	-0,022	-0,018
5,277	-0,027	-0,016
5,278	-0,031	-0,019
5,279	-0,035	-0,012
5,28	-0,039	-0,032
5,281	-0,043	-0,052
5,282	-0,048	-0,055
5,283	-0,052	-0,079
5,284	-0,057	-0,077
5,285	-0,062	-0,068
5,286	-0,068	-0,067
5,287	-0,074	-0,052
5,288	-0,081	-0,070
5,289	-0,088	-0,088
5,29	-0,094	-0,089
5,291	-0,101	-0,100
5,292	-0,107	-0,117
5,293	-0,114	-0,123
5,294	-0,119	-0,109
5,295	-0,124	-0,113
5,296	-0,129	-0,141
5,297	-0,132	-0,151
5,298	-0,135	-0,122
5,299	-0,138	-0,120
5,3	-0,140	-0,144
5,301	-0,141	-0,140
5,302	-0,143	-0,154
5,303	-0,145	-0,161
5,304	-0,146	-0,147
5,305	-0,148	-0,148
5,306	-0,150	-0,145
5,307	-0,152	-0,149
5,308	-0,155	-0,131
5,309	-0,158	-0,139
5,31	-0,161	-0,175
5,311	-0,165	-0,177
5,312	-0,168	-0,187
5,313	-0,171	-0,187
5,314	-0,174	-0,166
5,315	-0,176	-0,171
5,316	-0,178	-0,176
5,317	-0,179	-0,174
5,318	-0,180	-0,169
5,319	-0,180	-0,170
5,32	-0,179	-0,170
5,321	-0,178	-0,157
5,322	-0,177	-0,179
5,323	-0,175	-0,207
5,324	-0,174	-0,211
5,325	-0,172	-0,200
5,326	-0,171	-0,177
5,327	-0,170	-0,161
5,328	-0,170	-0,135
5,329	-0,170	-0,152
5,33	-0,171	-0,169
5,331	-0,172	-0,143
5,332	-0,173	-0,163
5,333	-0,175	-0,185
5,334	-0,177	-0,188
5,335	-0,178	-0,197
5,336	-0,180	-0,183
5,337	-0,181	-0,183
5,338	-0,181	-0,191
5,339	-0,182	-0,186
5,34	-0,181	-0,184
5,341	-0,181	-0,178
5,342	-0,180	-0,187
5,343	-0,178	-0,186
5,344	-0,177	-0,165
5,345	-0,175	-0,159
5,346	-0,174	-0,165
5,347	-0,173	-0,171
5,348	-0,172	-0,170
5,349	-0,171	-0,163
5,35	-0,171	-0,178
5,351	-0,171	-0,187
5,352	-0,172	-0,164
5,353	-0,173	-0,164
5,354	-0,174	-0,167
5,355	-0,175	-0,170
5,356	-0,176	-0,194
5,357	-0,176	-0,218
5,358	-0,177	-0,213
5,359	-0,177	-0,168
5,36	-0,177	-0,136
5,361	-0,176	-0,142
5,362	-0,175	-0,158
5,363	-0,174	-0,169
5,364	-0,172	-0,181
5,365	-0,171	-0,184
5,366	-0,169	-0,187
5,367	-0,168	-0,183
5,368	-0,166	-0,163
5,369	-0,165	-0,150
5,37	-0,165	-0,153
5,371	-0,165	-0,163
5,372	-0,166	-0,174
5,373	-0,167	-0,188
5,374	-0,168	-0,176
5,375	-0,171	-0,161
5,376	-0,173	-0,169
5,377	-0,175	-0,176
5,378	-0,178	-0,169
5,379	-0,181	-0,165
5,38	-0,183	-0,185
5,381	-0,186	-0,188
5,382	-0,188	-0,177
5,383	-0,189	-0,204
5,384	-0,190	-0,207
5,385	-0,191	-0,198
5,386	-0,191	-0,184
5,387	-0,191	-0,168
5,388	-0,191	-0,192
5,389	-0,190	-0,203
5,39	-0,189	-0,216
5,391	-0,188	-0,205
5,392	-0,187	-0,153
5,393	-0,186	-0,162
5,394	-0,185	-0,194
5,395	-0,183	-0,183
5,396	-0,182	-0,176
5,397	-0,181	-0,183
5,398	-0,180	-0,183
5,399	-0,179	-0,186
5,4	-0,179	-0,168
5,401	-0,179	-0,160
5,402	-0,179	-0,205
5,403	-0,179	-0,200
5,404	-0,180	-0,176
5,405	-0,181	-0,177
5,406	-0,182	-0,182
5,407	-0,184	-0,203
5,408	-0,186	-0,183
5,409	-0,188	-0,174
5,41	-0,191	-0,199
5,411	-0,193	-0,171
5,412	-0,195	-0,166
5,413	-0,197	-0,208
5,414	-0,200	-0,215
5,415	-0,201	-0,211
5,416	-0,203	-0,211
5,417	-0,204	-0,194
5,418	-0,205	-0,181
5,419	-0,205	-0,195
5,42	-0,205	-0,219
5,421	-0,204	-0,226
5,422	-0,203	-0,211
5,423	-0,202	-0,204
5,424	-0,201	-0,211
5,425	-0,199	-0,212
5,426	-0,198	-0,193
5,427	-0,196	-0,184
5,428	-0,194	-0,185
5,429	-0,193	-0,170
5,43	-0,191	-0,176
5,431	-0,190	-0,202
5,432	-0,189	-0,204
5,433	-0,188	-0,189
5,434	-0,188	-0,177
5,435	-0,188	-0,175
5,436	-0,188	-0,187
5,437	-0,188	-0,206
5,438	-0,189	-0,198
5,439	-0,189	-0,196
5,44	-0,190	-0,198
5,441	-0,192	-0,193
5,442	-0,193	-0,204
5,443	-0,194	-0,172
5,444	-0,196	-0,190
5,445	-0,197	-0,221
5,446	-0,199	-0,189
5,447	-0,200	-0,190
5,448	-0,201	-0,193
5,449	-0,202	-0,204
5,45	-0,203	-0,204
5,451	-0,203	-0,202
5,452	-0,203	-0,208
5,453	-0,203	-0,184
5,454	-0,202	-0,195
5,455	-0,202	-0,203
5,456	-0,201	-0,212
5,457	-0,199	-0,212
5,458	-0,198	-0,194
5,459	-0,197	-0,202
5,46	-0,196	-0,204
5,461	-0,195	-0,188
5,462	-0,194	-0,196
5,463	-0,194	-0,204
5,464	-0,193	-0,185
5,465	-0,193	-0,197
5,466	-0,193	-0,215
5,467	-0,193	-0,196
5,468	-0,193	-0,173
5,469	-0,193	-0,179
5,47	-0,193	-0,187
5,471	-0,192	-0,177
5,472	-0,191	-0,161
5,473	-0,189	-0,189
5,474	-0,188	-0,215
5,475	-0,185	-0,202
5,476	-0,183	-0,184
5,477	-0,181	-0,191
5,478	-0,178	-0,198
5,479	-0,176	-0,154
5,48	-0,175	-0,160
5,481	-0,174	-0,191
5,482	-0,174	-0,177
5,483	-0,175	-0,172
5,484	-0,177	-0,179
5,485	-0,179	-0,211
5,486	-0,182	-0,209
5,487	-0,185	-0,174
5,488	-0,189	-0,165
5,489	-0,192	-0,162
5,49	-0,195	-0,165
5,491	-0,198	-0,167
5,492	-0,199	-0,196
5,493	-0,200	-0,222
5,494	-0,199	-0,225
5,495	-0,197	-0,186
5,496	-0,194	-0,174
5,497	-0,189	-0,217
5,498	-0,184	-0,195
5,499	-0,178	-0,188
5,5	-0,172	-0,212
5,501	-0,166	-0,199
5,502	-0,161	-0,172
5,503	-0,155	-0,127
5,504	-0,151	-0,138
5,505	-0,147	-0,148
5,506	-0,144	-0,097
5,507	-0,142	-0,093
5,508	-0,141	-0,117
5,509	-0,140	-0,133
5,51	-0,140	-0,151
5,511	-0,140	-0,163
5,512	-0,139	-0,168
5,513	-0,139	-0,161
5,514	-0,138	-0,143
5,515	-0,136	-0,141
5,516	-0,134	-0,144
5,517	-0,131	-0,126
5,518	-0,129	-0,120
5,519	-0,126	-0,131
5,52	-0,123	-0,131
5,521	-0,121	-0,125
5,522	-0,120	-0,125
5,523	-0,120	-0,121
5,524	-0,122	-0,096
5,525	-0,125	-0,102
5,526	-0,129	-0,118
5,527	-0,136	-0,125
5,528	-0,143	-0,141
5,529	-0,152	-0,150
5,53	-0,162	-0,173
5,531	-0,172	-0,196
5,532	-0,182	-0,203
5,533	-0,192	-0,194
5,534	-0,201	-0,194
5,535	-0,209	-0,202
5,536	-0,215	-0,202
5,537	-0,221	-0,222
5,538	-0,225	-0,230
5,539	-0,227	-0,231
5,54	-0,228	-0,245
5,541	-0,228	-0,223
5,542	-0,228	-0,222
5,543	-0,227	-0,238
5,544	-0,226	-0,219
5,545	-0,225	-0,215
5,546	-0,224	-0,216
5,547	-0,224	-0,217
5,548	-0,224	-0,223
5,549	-0,225	-0,231
5,55	-0,227	-0,232
5,551	-0,229	-0,229
5,552	-0,231	-0,222
5,553	-0,233	-0,228
5,554	-0,235	-0,245
5,555	-0,237	-0,239
5,556	-0,238	-0,225
5,557	-0,239	-0,219
5,558	-0,239	-0,248
5,559	-0,239	-0,272
5,56	-0,239	-0,252
5,561	-0,238	-0,245
5,562	-0,238	-0,250
5,563	-0,238	-0,245
5,564	-0,237	-0,227
5,565	-0,238	-0,218
5,566	-0,238	-0,233
5,567	-0,240	-0,225
5,568	-0,241	-0,229
5,569	-0,243	-0,239
5,57	-0,244	-0,236
5,571	-0,245	-0,243
5,572	-0,246	-0,251
5,573	-0,246	-0,242
5,574	-0,246	-0,227
5,575	-0,244	-0,254
5,576	-0,242	-0,271
5,577	-0,239	-0,235
5,578	-0,235	-0,244
5,579	-0,230	-0,261
5,58	-0,225	-0,230
5,581	-0,220	-0,240
5,582	-0,216	-0,256
5,583	-0,212	-0,200
5,584	-0,209	-0,170
5,585	-0,207	-0,181
5,586	-0,206	-0,166
5,587	-0,206	-0,176
5,588	-0,207	-0,191
5,589	-0,208	-0,202
5,59	-0,210	-0,212
5,591	-0,211	-0,219
5,592	-0,211	-0,233
5,593	-0,209	-0,238
5,594	-0,206	-0,237
5,595	-0,200	-0,212
5,596	-0,191	-0,186
5,597	-0,179	-0,194
5,598	-0,163	-0,176
5,599	-0,144	-0,137
5,6	-0,121	-0,120
5,601	-0,096	-0,080
5,602	-0,068	-0,050
5,603	-0,037	-0,013
5,604	-0,005	0,013
5,605	0,027	0,023
5,606	0,060	0,062
5,607	0,092	0,083
5,608	0,123	0,119
5,609	0,152	0,169
5,61	0,178	0,192
5,611	0,202	0,201
5,612	0,222	0,212
5,613	0,238	0,218
5,614	0,250	0,229
5,615	0,257	0,241
5,616	0,261	0,232
5,617	0,260	0,244
5,618	0,254	0,263
5,619	0,243	0,251
5,62	0,228	0,247
5,621	0,210	0,223
5,622	0,187	0,203
5,623	0,160	0,196
5,624	0,130	0,156
5,625	0,097	0,099
5,626	0,061	0,046
5,627	0,024	-0,004
5,628	-0,015	-0,042
5,629	-0,055	-0,061
5,63	-0,094	-0,098
5,631	-0,132	-0,147
5,632	-0,169	-0,167
5,633	-0,203	-0,175
5,634	-0,234	-0,216
5,635	-0,262	-0,278
5,636	-0,286	-0,292
5,637	-0,306	-0,309
5,638	-0,322	-0,313
5,639	-0,333	-0,325
5,64	-0,340	-0,376
5,641	-0,343	-0,345
5,642	-0,343	-0,340
5,643	-0,340	-0,336
5,644	-0,334	-0,299
5,645	-0,327	-0,319
5,646	-0,319	-0,321
5,647	-0,311	-0,302
5,648	-0,303	-0,292
5,649	-0,295	-0,306
5,65	-0,289	-0,301
5,651	-0,283	-0,288
5,652	-0,279	-0,287
5,653	-0,277	-0,292
5,654	-0,275	-0,284
5,655	-0,275	-0,278
5,656	-0,275	-0,277
5,657	-0,277	-0,268
5,658	-0,278	-0,277
5,659	-0,280	-0,274
5,66	-0,281	-0,287
5,661	-0,282	-0,279
5,662	-0,283	-0,264
5,663	-0,282	-0,276
5,664	-0,281	-0,278
5,665	-0,280	-0,286
5,666	-0,278	-0,282
5,667	-0,275	-0,263
5,668	-0,272	-0,249
5,669	-0,269	-0,267
5,67	-0,266	-0,289
5,671	-0,264	-0,280
5,672	-0,261	-0,272
5,673	-0,260	-0,272
5,674	-0,259	-0,268
5,675	-0,258	-0,267
5,676	-0,258	-0,265
5,677	-0,259	-0,249
5,678	-0,259	-0,247
5,679	-0,261	-0,268
5,68	-0,262	-0,250
5,681	-0,263	-0,230
5,682	-0,264	-0,254
5,683	-0,265	-0,233
5,684	-0,266	-0,253
5,685	-0,266	-0,315
5,686	-0,266	-0,285
5,687	-0,265	-0,261
5,688	-0,264	-0,280
5,689	-0,263	-0,275
5,69	-0,262	-0,270
5,691	-0,260	-0,267
5,692	-0,259	-0,255
5,693	-0,258	-0,252
5,694	-0,257	-0,250
5,695	-0,256	-0,250
5,696	-0,256	-0,247
5,697	-0,255	-0,245
5,698	-0,255	-0,249
5,699	-0,256	-0,262
5,7	-0,256	-0,262
5,701	-0,256	-0,268
5,702	-0,256	-0,264
5,703	-0,256	-0,240
5,704	-0,256	-0,233
5,705	-0,256	-0,234
5,706	-0,255	-0,247
5,707	-0,253	-0,280
5,708	-0,252	-0,292
5,709	-0,249	-0,269
5,71	-0,247	-0,250
5,711	-0,244	-0,242
5,712	-0,241	-0,214
5,713	-0,238	-0,223
5,714	-0,235	-0,237
5,715	-0,232	-0,239
5,716	-0,230	-0,259
5,717	-0,227	-0,216
5,718	-0,225	-0,202
5,719	-0,222	-0,235
5,72	-0,220	-0,215
5,721	-0,218	-0,194
5,722	-0,217	-0,198
5,723	-0,215	-0,199
5,724	-0,213	-0,203
5,725	-0,211	-0,231
5,726	-0,208	-0,264
5,727	-0,206	-0,245
5,728	-0,203	-0,194
5,729	-0,201	-0,188
5,73	-0,198	-0,185
5,731	-0,195	-0,184
5,732	-0,192	-0,180
5,733	-0,189	-0,187
5,734	-0,186	-0,211
5,735	-0,183	-0,183
5,736	-0,180	-0,172
5,737	-0,178	-0,173
5,738	-0,176	-0,177
5,739	-0,174	-0,179
5,74	-0,172	-0,145
5,741	-0,170	-0,147
5,742	-0,168	-0,151
5,743	-0,166	-0,153
5,744	-0,165	-0,189
5,745	-0,163	-0,183
5,746	-0,161	-0,184
5,747	-0,158	-0,192
5,748	-0,156	-0,165
5,749	-0,153	-0,166
5,75	-0,149	-0,158
5,751	-0,146	-0,126
5,752	-0,142	-0,121
5,753	-0,138	-0,123
5,754	-0,134	-0,112
5,755	-0,130	-0,116
5,756	-0,126	-0,120
5,757	-0,122	-0,108
5,758	-0,117	-0,120
5,759	-0,113	-0,140
5,76	-0,108	-0,114
5,761	-0,104	-0,089
5,762	-0,099	-0,106
5,763	-0,093	-0,112
5,764	-0,088	-0,089
5,765	-0,082	-0,086
5,766	-0,076	-0,098
5,767	-0,069	-0,091
5,768	-0,062	-0,064
5,769	-0,055	-0,049
5,77	-0,048	-0,039
5,771	-0,040	-0,028
5,772	-0,033	-0,023
5,773	-0,025	0,019
5,774	-0,017	0,032
5,775	-0,010	-0,011
5,776	-0,003	-0,040
5,777	0,003	-0,020
5,778	0,010	0,006
5,779	0,015	-0,007
5,78	0,021	0,014
5,781	0,025	0,040
5,782	0,030	0,029
5,783	0,034	0,017
5,784	0,038	0,033
5,785	0,041	0,053
5,786	0,044	0,037
5,787	0,047	0,026
5,788	0,050	0,046
5,789	0,053	0,073
5,79	0,056	0,088
5,791	0,059	0,097
5,792	0,062	0,077
5,793	0,064	0,048
5,794	0,067	0,052
5,795	0,069	0,055
5,796	0,071	0,057
5,797	0,073	0,067
5,798	0,074	0,065
5,799	0,076	0,064
5,8	0,076	0,081
5,801	0,077	0,092
5,802	0,076	0,085
5,803	0,076	0,075
5,804	0,075	0,057
5,805	0,073	0,063
5,806	0,071	0,080
5,807	0,069	0,075
5,808	0,066	0,086
5,809	0,063	0,071
5,81	0,059	0,045
5,811	0,055	0,062
5,812	0,050	0,064
5,813	0,045	0,035
5,814	0,039	0,010
5,815	0,034	0,046
5,816	0,028	0,046
5,817	0,021	0,006
5,818	0,014	0,017
5,819	0,008	0,009
5,82	0,001	-0,011
5,821	-0,006	-0,014
5,822	-0,013	-0,013
5,823	-0,019	-0,024
5,824	-0,026	-0,027
5,825	-0,032	-0,019
5,826	-0,038	-0,044
5,827	-0,043	-0,046
5,828	-0,049	-0,035
5,829	-0,054	-0,059
5,83	-0,059	-0,043
5,831	-0,064	-0,032
5,832	-0,069	-0,065
5,833	-0,075	-0,081
5,834	-0,080	-0,106
5,835	-0,087	-0,107
5,836	-0,094	-0,090
5,837	-0,101	-0,105
5,838	-0,110	-0,115
5,839	-0,119	-0,120
5,84	-0,129	-0,133
5,841	-0,139	-0,156
5,842	-0,149	-0,158
5,843	-0,160	-0,148
5,844	-0,171	-0,126
5,845	-0,181	-0,154
5,846	-0,191	-0,215
5,847	-0,200	-0,216
5,848	-0,208	-0,204
5,849	-0,215	-0,208
5,85	-0,220	-0,212
5,851	-0,225	-0,224
5,852	-0,228	-0,230
5,853	-0,231	-0,220
5,854	-0,232	-0,240
5,855	-0,232	-0,263
5,856	-0,232	-0,240
5,857	-0,232	-0,241
5,858	-0,231	-0,232
5,859	-0,230	-0,210
5,86	-0,230	-0,236
5,861	-0,230	-0,229
5,862	-0,230	-0,222
5,863	-0,231	-0,241
5,864	-0,233	-0,237
5,865	-0,234	-0,222
5,866	-0,237	-0,211
5,867	-0,239	-0,219
5,868	-0,242	-0,232
